# RiF 1e-20 (cm^2/W)
# 1w(eV) RpP                     RpS                     RsP                     RsS
00.01    3.13748449962808e-09    1.70774957424082e-09    9.59112566427126e-10    7.93641852853623e-10
00.02    4.20107740461473e-09    2.28864998032676e-09    1.28531399046037e-09    1.06360858481749e-09
00.03    6.50154160892789e-09    3.54604532410227e-09    1.99137724679659e-09    1.64797084142238e-09
00.04    1.03843831306189e-08    5.67084849956896e-09    3.18446158426216e-09    2.63545839667531e-09
00.05    1.63651971975717e-08    8.94871676429662e-09    5.02488985494148e-09    4.15883656902952e-09
00.06    2.51264783844087e-08    1.37591946107415e-08    7.72564763936756e-09    6.39450976811578e-09
00.07    3.75135944215453e-08    2.05746866405831e-08    1.15517795462588e-08    9.56204646272882e-09
00.08    5.45303336128873e-08    2.99594768756170e-08    1.68198052563657e-08    1.39237268433675e-08
00.09    7.73345163832947e-08    4.25690572776406e-08    2.38973024190601e-08    1.97842350977730e-08
00.10    1.07234064675382e-07    5.91499758619284e-08    3.32027750634994e-08    2.74905946518860e-08
00.11    1.45683697834416e-07    8.05402963210281e-08    4.52058580040631e-08    3.74323885644817e-08
00.12    1.94282179074559e-07    1.07670628917663e-07    6.04278328375515e-08    5.00422461404416e-08
00.13    2.54769872430136e-07    1.41565608231707e-07    7.94423837382689e-08    6.57965373094608e-08
00.14    3.29026328942961e-07    1.83345675381907e-07    1.02876508503968e-07    8.52162062925899e-08
00.15    4.19067671838873e-07    2.34229043886431e-07    1.31411520326373e-07    1.08867692080161e-07
00.16    5.27043658107433e-07    2.95533795261644e-07    1.65784106584165e-07    1.37363908684721e-07
00.17    6.55234385098833e-07    3.68680079955167e-07    2.06787437290147e-07    1.71365278862252e-07
00.18    8.06046680374830e-07    4.55192442642612e-07    2.55272334318371e-07    2.11580830058457e-07
00.19    9.82010235961552e-07    5.56702303259312e-07    3.12148510869697e-07    2.58769364164435e-07
00.20    1.18577352571205e-06    6.74950618056763e-07    3.78385895176083e-07    3.13740710856224e-07
00.21    1.42009951643554e-06    8.11790752235369e-07    4.55016039590388e-07    3.77357075351736e-07
00.22    1.68786114654086e-06    9.69191562953539e-07    5.43133624426445e-07    4.50534484863461e-07
00.23    1.99203652821178e-06    1.14924070725824e-06    6.43898056163885e-07    5.34244342468109e-07
00.24    2.33570388135378e-06    1.35414816279925e-06    7.58535174248612e-07    6.29515093580797e-07
00.25    2.72203623326134e-06    1.58624998382929e-06    8.88339065081167e-07    7.37434009081466e-07
00.26    3.15429595193822e-06    1.84801232328737e-06    1.03467399068915e-06    8.59149091310667e-07
00.27    3.63582918066031e-06    2.14203574746009e-06    1.19897642850299e-06    9.95871106656994e-07
00.28    4.17006015102823e-06    2.47105988109932e-06    1.38275722082380e-06    1.14887574920226e-06
00.29    4.76048531146723e-06    2.83796837419637e-06    1.58760383958346e-06    1.31950594097052e-06
00.30    5.41066720357819e-06    3.24579417558421e-06    1.81518275950641e-06    1.50917427763930e-06
00.31    6.12422802060108e-06    3.69772508130885e-06    2.06724195335614e-06    1.71936562458863e-06
00.32    6.90484286267766e-06    4.19710952854476e-06    2.34561351161880e-06    1.95163987423718e-06
00.33    7.75623267948305e-06    4.74746266124872e-06    2.65221640238082e-06    2.20763487441404e-06
00.34    8.68215696974292e-06    5.35247274800604e-06    2.98905937506885e-06    2.48906953290464e-06
00.35    9.68640627792575e-06    6.01600805010529e-06    3.35824402422673e-06    2.79774711358976e-06
00.36    1.07727946684809e-05    6.74212428752805e-06    3.76196799977524e-06    3.13555874200766e-06
00.37    1.19451523059659e-05    7.53507272691449e-06    4.20252837328443e-06    3.50448713502429e-06
00.38    1.32073181047286e-05    8.39930883738357e-06    4.68232517105550e-06    3.90661057841539e-06
00.39    1.45631322450184e-05    9.33950142467386e-06    5.20386509129999e-06    4.34410715848566e-06
00.40    1.60164282675489e-05    1.03605421333583e-05    5.76976541610899e-06    4.81925926126438e-06
00.41    1.75710244580977e-05    1.14675553358606e-05    6.38275810995499e-06    5.33445833838313e-06
00.42    1.92307146873811e-05    1.26659085300311e-05    7.04569408390201e-06    5.89220996443612e-06
00.43    2.09992590092205e-05    1.39612233908869e-05    7.76154761401877e-06    6.49513919242113e-06
00.44    2.28803745713968e-05    1.53593876771819e-05    8.53342092153086e-06    7.14599623958050e-06
00.45    2.48777270299502e-05    1.68665680868038e-05    9.36454898371961e-06    7.84766252635303e-06
00.46    2.69949225190178e-05    1.84892241658992e-05    1.02583045979876e-05    8.60315711465315e-06
00.47    2.92354997062999e-05    2.02341232232370e-05    1.12182037166498e-05    9.41564358016753e-06
00.48    3.16029213736783e-05    2.21083561490691e-05    1.22479110418615e-05    1.02884373658448e-05
00.49    3.41005649683178e-05    2.41193539623259e-05    1.33512458325210e-05    1.12250136284358e-05
00.50    3.67317122717607e-05    2.62749050738158e-05    1.45321879323326e-05    1.22290155718173e-05
00.51    3.94995385999313e-05    2.85831734287204e-05    1.57948840112186e-05    1.33042632684660e-05
00.52    4.24071025331326e-05    3.10527179258746e-05    1.71436540798621e-05    1.44547630133139e-05
00.53    4.54573367589685e-05    3.36925135019167e-05    1.85829982482814e-05    1.56847172998976e-05
00.54    4.86530400043336e-05    3.65119739908624e-05    2.01176037727740e-05    1.69985355407873e-05
00.55    5.19968694121155e-05    3.95209767931955e-05    2.17523523916976e-05    1.84008456470584e-05
00.56    5.54913322557357e-05    4.27298889911513e-05    2.34923280810756e-05    1.98965064851836e-05
00.57    5.91387765395029e-05    4.61495949887455e-05    2.53428252121520e-05    2.14906211104971e-05
00.58    6.29413802800587e-05    4.97915258261259e-05    2.73093572100206e-05    2.31885509045523e-05
00.59    6.69011404726026e-05    5.36676903896677e-05    2.93976655880962e-05    2.49959304838178e-05
00.60    7.10198629526020e-05    5.77907090701211e-05    3.16137291884895e-05    2.69186836871859e-05
00.61    7.52991540780110e-05    6.21738502396237e-05    3.39637735779605e-05    2.89630409495297e-05
00.62    7.97404142817863e-05    6.68310698730779e-05    3.64542806252619e-05    3.11355581864278e-05
00.63    8.43448324629000e-05    7.17770549212074e-05    3.90919983014327e-05    3.34431375496598e-05
00.64    8.91133802707405e-05    7.70272699893240e-05    4.18839508016255e-05    3.58930496879464e-05
00.65    9.40468054150040e-05    8.25980068551784e-05    4.48374489772685e-05    3.84929571404051e-05
00.66    9.91456247033945e-05    8.85064359621639e-05    4.79601011187587e-05    4.12509386168565e-05
00.67    1.04410117825845e-04    9.47706601538864e-05    5.12598238809841e-05    4.41755141918702e-05
00.68    1.09840322435420e-04    1.01409771794615e-04    5.47448537650977e-05    4.72756724930417e-05
00.69    1.15436030134320e-04    1.08443915863223e-04    5.84237592806276e-05    5.05609011905215e-05
00.70    1.21196782419813e-04    1.15894360725557e-04    6.23054539174191e-05    5.40412218119716e-05
00.71    1.27121867089450e-04    1.23783577674930e-04    6.63992094797363e-05    5.77272289301662e-05
00.72    1.33210317465001e-04    1.32135328900237e-04    7.07146687611005e-05    6.16301329244029e-05
00.73    1.39460915466902e-04    1.40974762117847e-04    7.52618568152184e-05    6.57618049974364e-05
00.74    1.45872199018687e-04    1.50328511366733e-04    8.00511907435450e-05    7.01348240360846e-05
00.75    1.52442470258953e-04    1.60224802929563e-04    8.50934892611120e-05    7.47625257182754e-05
00.76    1.59169801875980e-04    1.70693568472852e-04    9.03999830921305e-05    7.96590557409650e-05
00.77    1.66052039639749e-04    1.81766567032269e-04    9.59823270807249e-05    8.48394288033132e-05
00.78    1.73086806477798e-04    1.93477520717884e-04    1.01852612464473e-04    9.03195954300875e-05
00.79    1.80271514400994e-04    2.05862267409512e-04    1.08023377506722e-04    9.61165171878701e-05
00.80    1.87603388609926e-04    2.18958931270393e-04    1.14507615082150e-04    1.02248249836507e-04
00.81    1.95079503902263e-04    2.32808110062848e-04    1.21318776621653e-04    1.08734033118804e-04
00.82    2.02696826545568e-04    2.47453077554818e-04    1.28470772949764e-04    1.15594386893656e-04
00.83    2.10452257787253e-04    2.62940002058488e-04    1.35977972434681e-04    1.22851215090568e-04
00.84    2.18342677302611e-04    2.79318187749268e-04    1.43855194814806e-04    1.30527921465688e-04
00.85    2.26364993197544e-04    2.96640347391126e-04    1.52117698661349e-04    1.38649541622441e-04
00.86    2.34516206076071e-04    3.14962914128183e-04    1.60781159482069e-04    1.47242894629738e-04
00.87    2.42793495157297e-04    3.34346396357674e-04    1.69861635615917e-04    1.56336755034405e-04
00.88    2.51194331476614e-04    3.54855775289821e-04    1.79375519652503e-04    1.65962044391356e-04
00.89    2.59716619772751e-04    3.76560946408811e-04    1.89339473135637e-04    1.76152043274162e-04
00.90    2.68358868562829e-04    3.99537211154768e-04    1.99770340445613e-04    1.86942627390278e-04
00.91    2.77120391416980e-04    4.23865833529716e-04    2.10685036948274e-04    1.98372536634253e-04
00.92    2.86001543027022e-04    4.49634679291889e-04    2.22100403664592e-04    2.10483685776164e-04
00.93    2.95003998769224e-04    4.76938957321400e-04    2.34033023470749e-04    2.23321526088036e-04
00.94    3.04131085984883e-04    5.05882077285058e-04    2.46498996862169e-04    2.36935463630863e-04
00.95    3.13388167403922e-04    5.36576638173803e-04    2.59513678163431e-04    2.51379339261580e-04
00.96    3.22783068836581e-04    5.69145571357607e-04    2.73091374311580e-04    2.66711981416342e-04
00.97    3.32326541159427e-04    6.03723479757727e-04    2.87245000751476e-04    2.82997852137359e-04
00.98    3.42032761957898e-04    6.40458236026940e-04    3.01985678892553e-04    3.00307819430587e-04
00.99    3.51919913202116e-04    6.79512893369255e-04    3.17322248948947e-04    3.18720086039734e-04
01.00    3.62010898959151e-04    7.21067892919767e-04    3.33260670403478e-04    3.38321271867087e-04
01.01    3.72334249902127e-04    7.65323370882385e-04    3.49803306220983e-04    3.59207562438861e-04
01.02    3.82925188642056e-04    8.12501109322904e-04    3.66948138753326e-04    3.81485706403641e-04
01.03    3.93826667515282e-04    8.62845398914866e-04    3.84688068804451e-04    4.05273508296107e-04
01.04    4.05089987652723e-04    9.16622012983041e-04    4.03010581717705e-04    4.30699418747317e-04
01.05    4.16774415933397e-04    9.74114893263699e-04    4.21898203166864e-04    4.57901007178829e-04
01.06    4.28945157926363e-04    1.03562121572887e-03    4.41330228401093e-04    4.87022609707841e-04
01.07    4.41669238488379e-04    1.10144716318533e-03    4.61286110006299e-04    5.18213244737463e-04
01.08    4.55009372321100e-04    1.17190839075558e-03    4.81750551491143e-04    5.51626701029749e-04
01.09    4.69016761852133e-04    1.24733977900077e-03    5.02719789013587e-04    5.87426012444100e-04
01.10    4.83724714324478e-04    1.32811740586823e-03    5.24207898268159e-04    6.25793755582142e-04
01.11    4.99145670151552e-04    1.41469106976546e-03    5.46251535681696e-04    6.66947407518994e-04
01.12    5.15274198479257e-04    1.50761880920013e-03    5.68911704885066e-04    7.11155691811450e-04
01.13    5.32097373702665e-04    1.60758799522337e-03    5.92272263206872e-04    7.58748524841122e-04
01.14    5.49611647189905e-04    1.71540438608741e-03    6.16437014093614e-04    8.10111613722595e-04
01.15    5.67842239133892e-04    1.83193451235968e-03    6.41529979296847e-04    8.65658638036662e-04
01.16    5.86858068890344e-04    1.95799955862478e-03    6.67705917292737e-04    9.25780082979151e-04
01.17    6.06773376018988e-04    2.09423854546452e-03    6.95179103248318e-04    9.90777257799284e-04
01.18    6.27727510770588e-04    2.24097942245524e-03    7.24276573441266e-04    1.06080010665736e-03
01.19    6.49837435222084e-04    2.39817049028675e-03    7.55516720466590e-04    1.13581416704941e-03
01.20    6.73123173497420e-04    2.56542366995246e-03    7.89705480779241e-04    1.21562169615983e-03
01.21    6.97413950288070e-04    2.74220142039984e-03    8.28031763355637e-04    1.29995255013584e-03
01.22    7.22250674458979e-04    2.92814229297958e-03    8.72133798178159e-04    1.38862262861164e-03
01.23    7.46807079394873e-04    3.12347430876812e-03    9.24102182811021e-04    1.48173547364358e-03
01.24    7.69855545107845e-04    3.32942313498144e-03    9.86387213682584e-04    1.57988199713006e-03
01.25    7.89802964632305e-04    3.54849732694246e-03    1.06159037199229e-03    1.68428105076378e-03
01.26    8.04816030337899e-04    3.78453664668782e-03    1.15214323092762e-03    1.79680502828535e-03
01.27    8.13043847607802e-04    4.04244620762259e-03    1.25990909079746e-03    1.91985219874934e-03
01.28    8.12929918830650e-04    4.32760496495069e-03    1.38577754199166e-03    2.05605924622414e-03
01.29    8.03588026616518e-04    4.64501936978631e-03    1.52935199739785e-03    2.20788762005009e-03
01.30    7.85202227726481e-04    4.99837362336043e-03    1.68884732805419e-03    2.37715694744467e-03
01.31    7.59406476320548e-04    5.38918673043701e-03    1.86131424097930e-03    2.56462809373950e-03
01.32    7.29610985661443e-04    5.81630677806176e-03    2.04328861486200e-03    2.76974911668629e-03
01.33    7.01274384481134e-04    6.27594515476529e-03    2.23193149136336e-03    2.99066449782071e-03
01.34    6.82171275697960e-04    6.76237826775967e-03    2.42668456754671e-03    3.22455164268299e-03
01.35    6.82764307332765e-04    7.26933223694859e-03    2.63142161375994e-03    3.46829366539454e-03
01.36    7.16841637009603e-04    7.79193540168103e-03    2.85703003120470e-03    3.71943292614158e-03
01.37    8.02606318711151e-04    8.32899722249862e-03    3.12430779097290e-03    3.97728702160314e-03
01.38    9.64392173587048e-04    8.88527373497647e-03    3.46700756047334e-03    4.24405970687636e-03
01.39    1.23513639293463e-03    9.47332951063527e-03    3.93480278876363e-03    4.52575384991191e-03
01.40    1.65969053510859e-03    1.01146173689182e-02    4.59589660618846e-03    4.83269891111644e-03
01.41    2.29904742500408e-03    1.08394740263015e-02    5.53895744876369e-03    5.17954381865406e-03
01.42    3.23566372227014e-03    1.16858651394927e-02    6.87407016121456e-03    5.58463420400786e-03
01.43    4.58031132334798e-03    1.26968870791558e-02    8.73246635315424e-03    6.06878085406728e-03
01.44    6.48128375116411e-03    1.39172162409368e-02    1.12649663555977e-02    6.65351943353271e-03
01.45    9.13717909560457e-03    1.53888575361160e-02    1.46393116167229e-02    7.35904297618827e-03
01.46    1.28145574359013e-02    1.71466562852776e-02    1.90368016232217e-02    8.20204447779432e-03
01.47    1.78710216388411e-02    1.92140980657096e-02    2.46486857553388e-02    9.19373312986863e-03
01.48    2.47821423915128e-02    2.15999509436687e-02    3.16723508393361e-02    1.03382946507185e-02
01.49    3.41668709403212e-02    2.42963505197360e-02    4.03063049712477e-02    1.16320785307823e-02
01.50    4.68011056046940e-02    2.72790310042971e-02    5.07413686431825e-02    1.30638387978366e-02
01.51    6.36045139993897e-02    3.05105549501708e-02    6.31439343093722e-02    1.46164334522811e-02
01.52    8.55843684734171e-02    3.39474731644102e-02    7.76268026778915e-02    1.62704502979204e-02
01.53    1.13725382905835e-01    3.75521229827010e-02    9.42054182520461e-02    1.80101579450588e-02
01.54    1.48828594330388e-01    4.13089301460722e-02    1.12743290913998e-01    1.98318058468440e-02
01.55    1.91324557408704e-01    4.52433753580048e-02    1.32899557238884e-01    2.17534590515219e-02
01.56    2.41112267649034e-01    4.94393545465753e-02    1.54101665942744e-01    2.38242747753821e-02
01.57    2.97498561619274e-01    5.40482073520861e-02    1.75573392552372e-01    2.61297393663213e-02
01.58    3.59325257912026e-01    5.92814671290262e-02    1.96448845364840e-01    2.87885407915251e-02
01.59    4.25364823857366e-01    6.53808892869827e-02    2.15993852960568e-01    3.19372946229002e-02
01.60    4.95034707120406e-01    7.25643855826360e-02    2.33937317092965e-01    3.57018381090767e-02
01.61    5.69426972522734e-01    8.09544298941634e-02    2.50891744450758e-01    4.01580436569626e-02
01.62    6.52578562795179e-01    9.05037954144107e-02    2.68821233490127e-01    4.52898571067025e-02
01.63    7.52820359507713e-01    1.00938321227344e-01    2.91499496633501e-01    5.09554744460227e-02
01.64    8.83939250160880e-01    1.11734713647830e-01    3.24885229532190e-01    5.68723612640730e-02
01.65    1.06577244933804e+00    1.22143273895923e-01    3.77318065836552e-01    6.26278696858284e-02
01.66    1.32374914180517e+00    1.31254642255718e-01    4.59398702056084e-01    6.77161667159029e-02
01.67    1.68684712852038e+00    1.38101253629910e-01    5.83367435471863e-01    7.15967158560471e-02
01.68    2.18352495649624e+00    1.41780898543109e-01    7.61769429271126e-01    7.37664431254716e-02
01.69    2.83554334861923e+00    1.41589688865413e-01    1.00526026512563e+00    7.38366169331169e-02
01.70    3.65030103130853e+00    1.37150329842821e-01    1.31963927557409e+00    7.16045758666338e-02
01.71    4.61331593833636e+00    1.28516718826385e-01    1.70261785026122e+00    6.71087564346251e-02
01.72    5.68341874016157e+00    1.16230971830600e-01    2.14130872817066e+00    6.06544337065084e-02
01.73    6.79345424569266e+00    1.01310891512075e-01    2.61167688733346e+00    5.28000815536684e-02
01.74    7.85822113230679e+00    8.51585100980829e-02    3.08091267440704e+00    4.43016718528569e-02
01.75    8.78899718596837e+00    6.93998629149438e-02    3.51277606866690e+00    3.60223496075832e-02
01.76    9.51114619839097e+00    5.56830751246937e-02    3.87471479898507e+00    2.88230606955754e-02
01.77    9.97943190376201e+00    4.54682657875133e-02    4.14459642246730e+00    2.34522803078599e-02
01.78    1.01859740608635e+01    3.98384004173096e-02    4.31480118249483e+00    2.04502247157378e-02
01.79    1.01583633091925e+01    3.93517293275394e-02    4.39234495239457e+00    2.00782426233984e-02
01.80    9.94910259828770e+00    4.39510321156359e-02    4.39520632381565e+00    2.22807992984631e-02
01.81    9.62047397157682e+00    5.29440850919574e-02    4.34636454339791e+00    2.66860399752881e-02
01.82    9.22985878831374e+00    6.50686286715154e-02    4.26761195537586e+00    3.26489747398326e-02
01.83    8.81938440615290e+00    7.86469608668161e-02    4.17486965754954e+00    3.93362228847804e-02
01.84    8.41149707676900e+00    9.18178102915011e-02    4.07586184512787e+00    4.58427602048974e-02
01.85    8.00992878535374e+00    1.02811100054838e-01    3.97011560332750e+00    5.13220486409666e-02
01.86    7.60433816718198e+00    1.10214094447804e-01    3.85071089064596e+00    5.51054810794626e-02
01.87    7.17673067449759e+00    1.13174112849380e-01    3.70706712552174e+00    5.67882777252183e-02
01.88    6.70816070005120e+00    1.11496653217532e-01    3.52814757073149e+00    5.62669280976491e-02
01.89    6.18467900499018e+00    1.05623966058052e-01    3.30557920027007e+00    5.37251381540490e-02
01.90    5.60175767731170e+00    9.65083499079600e-02    3.03622280105237e+00    4.95768368421833e-02
01.91    4.96656025179585e+00    8.54167617305597e-02    2.72373079493377e+00    4.43825357344154e-02
01.92    4.29764370932641e+00    7.37128464483720e-02    2.37872018421064e+00    3.87576464984032e-02
01.93    3.62213942376721e+00    6.26592405905738e-02    2.01745110405434e+00    3.32890050565593e-02
01.94    2.97111225234178e+00    5.32712571710758e-02    1.65930521977801e+00    2.84709193903415e-02
01.95    2.37438527563564e+00    4.62378905626272e-02    1.32374801293879e+00    2.46665581561999e-02
