# RiF 1e-20 (cm^2/W)
# 1w(eV) RpP                     RpS                     RsP                     RsS
00.01    3.05751231723777e-05    2.88961539777573e-08    1.16507017964498e-08    9.64239878900850e-09
00.02    4.09683940555595e-05    3.87257408989986e-08    1.56145280913430e-08    1.29238443708559e-08
00.03    6.34620713273097e-05    6.00027215860702e-08    2.41948860437250e-08    2.00274860238362e-08
00.04    1.01464477696124e-04    9.59581534213783e-08    3.86954285608216e-08    3.20334977006730e-08
00.05    1.60072862014609e-04    1.51426795054403e-07    6.10670923844639e-08    5.05587024000905e-08
00.06    2.46055064460949e-04    2.32832854968467e-07    9.39026233675570e-08    7.77524280102233e-08
00.07    3.67827135651398e-04    3.48173007957158e-07    1.40430051069302e-07    1.16291627907006e-07
00.08    5.35430808288425e-04    5.07000166705114e-07    2.04506599571471e-07    1.69376494921541e-07
00.09    7.60515518333787e-04    7.20412519552458e-07    2.90614819890131e-07    2.40728048942352e-07
00.10    1.05632872969237e-03    1.00105123703767e-06    4.03862386645494e-07    3.34588895119073e-07
00.11    1.43771614385496e-03    1.36310859235889e-06    5.49986174832093e-07    4.55727669138937e-07
00.12    1.92113100364946e-03    1.82234563894383e-06    7.35360324863369e-07    6.09446945709940e-07
00.13    2.52465017418959e-03    2.39611767114019e-06    9.67007429838033e-07    8.01593907947348e-07
00.14    3.26799435674483e-03    3.10340553917044e-06    1.25261182492511e-06    1.03857295470156e-06
00.15    4.17255034406876e-03    3.96484999803069e-06    1.60053420314663e-06    1.32735961860607e-06
00.16    5.26139417875022e-03    5.00278905978986e-06    2.01982715452593e-06    1.67551547564955e-06
00.17    6.55931484958824e-03    6.24129655659000e-06    2.52025154963059e-06    2.09120398272416e-06
00.18    8.09283856248665e-03    7.70622241683359e-06    3.11229390770538e-06    2.58320735851141e-06
00.19    9.89025388394902e-03    9.42523565320139e-06    3.80718487463459e-06    3.16094466270811e-06
00.20    1.19816380784403e-02    1.14278700724111e-05    4.61691899214501e-06    3.83449120725438e-06
00.21    1.43988851324387e-02    1.37455746995437e-05    5.55427578273744e-06    4.61459944746924e-06
00.22    1.71757357784471e-02    1.64117669427644e-05    6.63284228656425e-06    5.51272143015742e-06
00.23    2.03478099079266e-02    1.94618893795795e-05    7.86703705669005e-06    6.54103292297851e-06
00.24    2.39526410739767e-02    2.29334668885737e-05    9.27213580064827e-06    7.71245930843531e-06
00.25    2.80297127773163e-02    2.68661669409967e-05    1.08642986673561e-05    9.04070331541171e-06
00.26    3.26204959184460e-02    3.13018656945578e-05    1.26605992733190e-05    1.05402746765634e-05
00.27    3.77684871088051e-02    3.62847225552226e-05    1.46790554456519e-05    1.22265217864520e-05
00.28    4.35192482389557e-02    4.18612681895361e-05    1.69386616767669e-05    1.41156654376471e-05
00.29    4.99204478291734e-02    4.80805030428561e-05    1.94594233910267e-05    1.62248347424912e-05
00.30    5.70219046982699e-02    5.49940019891890e-05    2.22623929558781e-05    1.85721053793954e-05
00.31    6.48756341789172e-02    6.26560180604843e-05    2.53697076377212e-05    2.11765402660279e-05
00.32    7.35358963696166e-02    7.11235758792131e-05    2.88046295598558e-05    2.40582328362077e-05
00.33    8.30592460749973e-02    8.04565553005226e-05    3.25915878660843e-05    2.72383530681804e-05
00.34    9.35045843736253e-02    9.07177758372668e-05    3.67562231911202e-05    3.07391963960025e-05
00.35    1.04933211542773e-01    1.01973092986971e-04    4.13254346445690e-05    3.45842357236065e-05
00.36    1.17408881890992e-01    1.14291527592732e-04    4.63274291727987e-05    3.87981768149244e-05
00.37    1.30997859677697e-01    1.27745427864343e-04    5.17917734213490e-05    4.34070172720064e-05
00.38    1.45768976555451e-01    1.42410651058733e-04    5.77494482548086e-05    4.84381094468860e-05
00.39    1.61793690283304e-01    1.58366748530546e-04    6.42329061676313e-05    5.39202274129326e-05
00.40    1.79146145383657e-01    1.75697133232273e-04    7.12761317874789e-05    5.98836382610671e-05
00.41    1.97903236298809e-01    1.94489230555474e-04    7.89147054781419e-05    6.63601778409025e-05
00.42    2.18144672960285e-01    2.14834622315979e-04    8.71858698548980e-05    7.33833313605572e-05
00.43    2.39953048136691e-01    2.36829201746156e-04    9.61285991183099e-05    8.09883190127901e-05
00.44    2.63413905095693e-01    2.60573357149958e-04    1.05783671273002e-04    8.92121870630324e-05
00.45    2.88615805137806e-01    2.86172194442754e-04    1.16193744040533e-04    9.80939046990237e-05
00.46    3.15650395129278e-01    3.13735805435957e-04    1.27403434713893e-04    1.07674467263639e-04
00.47    3.44612475548772e-01    3.43379569731774e-04    1.39459404242289e-04    1.17997006433638e-04
00.48    3.75600071263805e-01    3.75224467583777e-04    1.52410445601275e-04    1.29106908171448e-04
00.49    4.08714506228714e-01    4.09397369175002e-04    1.66307576099810e-04    1.41051938894020e-04
00.50    4.44060481915779e-01    4.46031299432324e-04    1.81204133961272e-04    1.53882380061106e-04
00.51    4.81746158499688e-01    4.85265693953094e-04    1.97155879151707e-04    1.67651171368197e-04
00.52    5.21883235359606e-01    5.27246691311253e-04    2.14221099036248e-04    1.82414063080933e-04
00.53    5.64587028981515e-01    5.72127496090539e-04    2.32460718305512e-04    1.98229778614861e-04
00.54    6.09976546775414e-01    6.20068794814071e-04    2.51938413537898e-04    2.15160188873672e-04
00.55    6.58174558152713e-01    6.71239195213178e-04    2.72720732501092e-04    2.33270500037612e-04
00.56    7.09307664547202e-01    7.25815651963000e-04    2.94877220136499e-04    2.52629455441054e-04
00.57    7.63506372637946e-01    7.83983886537014e-04    3.18480551543426e-04    2.73309550908028e-04
00.58    8.20905168907290e-01    8.45938843423181e-04    3.43606673529520e-04    2.95387265674838e-04
00.59    8.81642601351662e-01    9.11885219773483e-04    3.70334953344395e-04    3.18943307582876e-04
00.60    9.45861354873834e-01    9.82038065317263e-04    3.98748332212199e-04    3.44062876550962e-04
00.61    1.01370831990475e+00    1.05662342060402e-03    4.28933482742887e-04    3.70835950307472e-04
00.62    1.08533465511729e+00    1.13587899455317e-03    4.60980970568306e-04    3.99357594273543e-04
00.63    1.16089583466576e+00    1.22005488269753e-03    4.94985420910490e-04    4.29728300808669e-04
00.64    1.24055169756309e+00    1.30941436272087e-03    5.31045691891381e-04    4.62054353917208e-04
00.65    1.32446650025682e+00    1.40423477042969e-03    5.69265054983206e-04    4.96448215561122e-04
00.66    1.41280897861225e+00    1.50480839959708e-03    6.09751382958450e-04    5.33028930735597e-04
00.67    1.50575241129799e+00    1.61144341786434e-03    6.52617342543243e-04    5.71922552083842e-04
00.68    1.60347466383536e+00    1.72446478729640e-03    6.97980596387454e-04    6.13262598064469e-04
00.69    1.70615819903363e+00    1.84421528680553e-03    7.45964015961207e-04    6.57190562321909e-04
00.70    1.81399006485639e+00    1.97105667088970e-03    7.96695907566729e-04    7.03856488759800e-04
00.71    1.92716185908228e+00    2.10537099101529e-03    8.50310246400979e-04    7.53419614413115e-04
00.72    2.04586970372468e+00    2.24756201996064e-03    9.06946906453963e-04    8.06049071493930e-04
00.73    2.17031422246686e+00    2.39805670834879e-03    9.66751877471849e-04    8.61924633268797e-04
00.74    2.30070050884121e+00    2.55730671913251e-03    1.02987746758346e-03    9.21237499415644e-04
00.75    2.43723807236441e+00    2.72579007264491e-03    1.09648250728305e-03    9.84191127071890e-04
00.76    2.58014075931578e+00    2.90401303017259e-03    1.16673256734796e-03    1.05100213318967e-03
00.77    2.72962665995671e+00    3.09251222160800e-03    1.24080020165855e-03    1.12190129098163e-03
00.78    2.88591795614384e+00    3.29185703300835e-03    1.31886519488947e-03    1.19713465004749e-03
00.79    3.04924063989112e+00    3.50265224566876e-03    1.40111479279814e-03    1.27696479044428e-03
00.80    3.21982407640078e+00    3.72554090301882e-03    1.48774389772797e-03    1.36167220779806e-03
00.81    3.39790040573149e+00    3.96120738531189e-03    1.57895522158791e-03    1.45155681538321e-03
00.82    3.58370395420466e+00    4.21038069591155e-03    1.67495940214973e-03    1.54693956248617e-03
00.83    3.77747076836660e+00    4.47383796147373e-03    1.77597508747939e-03    1.64816419275933e-03
00.84    3.97943835435396e+00    4.75240824105437e-03    1.88222896590279e-03    1.75559920029027e-03
00.85    4.18984547379499e+00    5.04697684593782e-03    1.99395571571313e-03    1.86964004958576e-03
00.86    4.40893176804885e+00    5.35849030577197e-03    2.11139783506542e-03    1.99071171054261e-03
00.87    4.63693696821993e+00    5.68796215003804e-03    2.23480531244364e-03    2.11927152551178e-03
00.88    4.87409952038297e+00    6.03647943392179e-03    2.36443510381930e-03    2.25581240302820e-03
00.89    5.12065466560609e+00    6.40520996364785e-03    2.50055038047334e-03    2.40086635813143e-03
00.90    5.37683218708466e+00    6.79541028081045e-03    2.64341948833808e-03    2.55500845940291e-03
00.91    5.64285396522369e+00    7.20843457399548e-03    2.79331455048414e-03    2.71886131697328e-03
00.92    5.91893147858806e+00    7.64574482531991e-03    2.95050960901484e-03    2.89310024918974e-03
00.93    6.20526321322577e+00    8.10892268675858e-03    3.11527823692535e-03    3.07845927463317e-03
00.94    6.50203188943547e+00    8.59968342680939e-03    3.28789058708000e-03    3.27573802786692e-03
00.95    6.80940153274301e+00    9.11989240741223e-03    3.46860987941151e-03    3.48580969078072e-03
00.96    7.12751457811171e+00    9.67158453872696e-03    3.65768834097727e-03    3.70963011912997e-03
00.97    7.45648929916556e+00    1.02569870974662e-02    3.85536251518469e-03    3.94824848768690e-03
00.98    7.79641785020459e+00    1.08785462622561e-02    4.06184772150817e-03    4.20281996469253e-03
00.99    8.14736483094894e+00    1.15389570100000e-02    4.27733129865207e-03    4.47462088874432e-03
01.00    8.50936596001358e+00    1.22411949850369e-02    4.50196423156726e-03    4.76506645158698e-03
01.01    8.88242631994011e+00    1.29885459120342e-02    4.73585107112626e-03    5.07572966271236e-03
01.02    9.26651781032399e+00    1.37846248354739e-02    4.97903875569001e-03    5.40835848799764e-03
01.03    9.66157631753881e+00    1.46333738932610e-02    5.23150637772012e-03    5.76488604314911e-03
01.04    1.00675001822851e+01    1.55390278400958e-02    5.49315981907160e-03    6.14742804038493e-03
01.05    1.04841525960419e+01    1.65060448829880e-02    5.76383718903125e-03    6.55826429026637e-03
01.06    1.09113705848829e+01    1.75390188798994e-02    6.04333197684616e-03    6.99980844052550e-03
01.07    1.13489817782448e+01    1.86426160344668e-02    6.33143957802390e-03    7.47458186865914e-03
01.08    1.17968269561840e+01    1.98216037003952e-02    6.62802821537946e-03    7.98521973178090e-03
01.09    1.22547819252236e+01    2.10810453334990e-02    6.93312733881445e-03    8.53454204843195e-03
01.10    1.27227686661131e+01    2.24267039579737e-02    7.24701735283192e-03    9.12571160562634e-03
01.11    1.32007448813726e+01    2.38656190285159e-02    7.57029820486102e-03    9.76246824117765e-03
01.12    1.36886648134237e+01    2.54067100660563e-02    7.90391659291318e-03    1.04493798090867e-02
01.13    1.41864126304346e+01    2.70611528720383e-02    8.24914725916587e-03    1.11919999406720e-02
01.14    1.46937205062305e+01    2.88422299724368e-02    8.60755423801700e-03    1.19967977551691e-02
01.15    1.52100931804557e+01    3.07644288015598e-02    8.98099774318498e-03    1.28707507082930e-02
01.16    1.57347647384819e+01    3.28417725306473e-02    9.37178896223356e-03    1.38205820972884e-02
01.17    1.62667094642317e+01    3.50856814615539e-02    9.78311030994288e-03    1.48517670676183e-02
01.18    1.68047160477857e+01    3.75029849767007e-02    1.02197942835884e-02    1.59675855179050e-02
01.19    1.73475171830195e+01    4.00949045200206e-02    1.06894783323084e-02    1.71686080029253e-02
01.20    1.78939493975695e+01    4.28577917478459e-02    1.12040275988321e-02    1.84530033774573e-02
01.21    1.84431075753416e+01    4.57860764368454e-02    1.17809612241526e-02    1.98179209093173e-02
01.22    1.89944582056792e+01    4.88772950311300e-02    1.24444683503137e-02    2.12619326013735e-02
01.23    1.95478841629569e+01    5.21383669392494e-02    1.32255079730185e-02    2.27881791453802e-02
01.24    2.01036468095317e+01    5.55916589377206e-02    1.41605071828076e-02    2.44075361612033e-02
01.25    2.06622609177388e+01    5.92790394379893e-02    1.52883478354220e-02    2.61409108151001e-02
01.26    2.12242798488630e+01    6.32622205660786e-02    1.66456740634834e-02    2.80197799112402e-02
01.27    2.17899845842210e+01    6.76182822360260e-02    1.82610280161316e-02    3.00843319208763e-02
01.28    2.23589671689570e+01    7.24302858751554e-02    2.01488444380598e-02    3.23790581237949e-02
01.29    2.29296076601602e+01    7.77741189350950e-02    2.23047892362240e-02    3.49462675076252e-02
01.30    2.34984686451420e+01    8.37039117557764e-02    2.47041972933885e-02    3.78186422762942e-02
01.31    2.40596720923383e+01    9.02392236783747e-02    2.73053759576350e-02    4.10124505738443e-02
01.32    2.46043693620009e+01    9.73574859438640e-02    3.00592849428337e-02    4.45232520369854e-02
01.33    2.51204537384919e+01    1.04994765350426e-01    3.29266359665335e-02    4.83257815698677e-02
01.34    2.55926849723317e+01    1.13056778953947e-01    3.59028623620511e-02    5.23791625283600e-02
01.35    2.60033907871402e+01    1.21440403634882e-01    3.90507626521900e-02    5.66377460679452e-02
01.36    2.63338812025115e+01    1.30063953335975e-01    4.25399502476030e-02    6.10668310670117e-02
01.37    2.65666558343597e+01    1.38902594173182e-01    4.66915274532256e-02    6.56614651428396e-02
01.38    2.66883955538937e+01    1.48023787856728e-01    5.20256130236352e-02    7.04656536113051e-02
01.39    2.66935933069053e+01    1.57616891958579e-01    5.93084901017172e-02    7.55887873993820e-02
01.40    2.65884793004242e+01    1.68011178693784e-01    6.95952922910371e-02    8.12160736990602e-02
01.41    2.63946324777309e+01    1.79677623800234e-01    8.42635155206136e-02    8.76102756745389e-02
01.42    2.61513763009505e+01    1.93211769862039e-01    1.05032603684159e-01    9.51031094516383e-02
01.43    2.59158103453766e+01    2.09297561404650e-01    1.33965865482323e-01    1.04076067688106e-01
01.44    2.57592501341000e+01    2.28654883898104e-01    1.73453420863219e-01    1.14932011323196e-01
01.45    2.57590736039824e+01    2.51976206550532e-01    2.26178543227917e-01    1.28060315538959e-01
01.46    2.59856163881828e+01    2.79859767462017e-01    2.95073294077020e-01    1.43799438531569e-01
01.47    2.64848691659010e+01    3.12748036517006e-01    3.83269809538951e-01    1.62401434885119e-01
01.48    2.72592540966632e+01    3.50880894082270e-01    4.94047071824069e-01    1.84003348883076e-01
01.49    2.82505214478333e+01    3.94273712910695e-01    6.30756466126293e-01    2.08611064388482e-01
01.50    2.93305173692244e+01    4.42731938446820e-01    7.96684031766626e-01    2.36102567689755e-01
01.51    3.03068373243843e+01    4.95915852648990e-01    9.94782228700076e-01    2.66259767057914e-01
01.52    3.09507678372994e+01    5.53470441790227e-01    1.22719776400917e+00    2.98840024151425e-01
01.53    3.10540493788950e+01    6.15232289259972e-01    1.49455835697042e+00    3.33698005413962e-01
01.54    3.05185742220769e+01    6.81513294467571e-01    1.79507687026446e+00    3.70961619672841e-01
01.55    2.94788378884171e+01    7.53435938309447e-01    2.12367987716153e+00    4.11249241996824e-01
01.56    2.84504111210058e+01    8.33258530526024e-01    2.47153273907602e+00    4.55889310286900e-01
01.57    2.84891734147472e+01    9.24590402016016e-01    2.82645559894240e+00    5.07073491589838e-01
01.58    3.13376585445139e+01    1.03237188778927e+00    3.17473956926807e+00    5.67852638881480e-01
01.59    3.95316011261203e+01    1.16249999703699e+00    3.50472966576572e+00    6.41886038680757e-01
01.60    5.64496737829606e+01    1.32102690365097e+00    3.81224136985740e+00    7.32889796469008e-01
01.61    8.63202037554153e+01    1.51293829256560e+00    4.10750085647818e+00    8.43798327534198e-01
01.62    1.34249274312059e+02    1.74061359772703e+00    4.42295950799402e+00    9.75738445084841e-01
01.63    2.06383780441482e+02    2.00215877628958e+00    4.82107565917649e+00    1.12699306103974e+00
01.64    3.10325416334682e+02    2.28987972056304e+00    5.40089465407758e+00    1.29218005588772e+00
01.65    4.55814816708901e+02    2.58924516350061e+00    6.30182750898756e+00    1.46188509178052e+00
01.66    6.55488390481757e+02    2.87877165573200e+00    7.70230468674741e+00    1.62296583839948e+00
01.67    9.25228251892185e+02    3.13129350938624e+00    9.81006202355008e+00    1.75968097717157e+00
01.68    1.28342397221368e+03    3.31694466347215e+00    1.28402751971575e+01    1.85566739021129e+00
01.69    1.74853579404114e+03    3.40778303371725e+00    1.69787821824113e+01    1.89657800101416e+00
01.70    2.33482028855650e+03    3.38337428730056e+00    2.23315897974776e+01    1.87293529395585e+00
01.71    3.04688795468144e+03    3.23606104039584e+00    2.88690918272361e+01    1.78255451873209e+00
01.72    3.87460211678048e+03    2.97441712777608e+00    3.63817952217592e+01    1.63187475940121e+00
01.73    4.79024937125878e+03    2.62374533864313e+00    4.44689875130205e+01    1.43576912480954e+00
01.74    5.74955611290138e+03    2.22332698795078e+00    5.25772793913245e+01    1.21581671122649e+00
01.75    6.69698049395677e+03    1.82107781027959e+00    6.00905132202556e+01    9.97426367772330e-01
01.76    7.57419691548024e+03    1.46685327911294e+00    6.64511009632402e+01    8.06424749327684e-01
01.77    8.32949292683859e+03    1.20566591353548e+00    7.12760034963535e+01    6.65698546807845e-01
01.78    8.92548904695054e+03    1.07168453451918e+00    7.44284551110652e+01    5.92303580615745e-01
01.79    9.34330067206672e+03    1.08346387122807e+00    7.60219268098022e+01    5.95280077274685e-01
01.80    9.58260522423724e+03    1.24071504027565e+00    7.63585034782588e+01    6.74346120736337e-01
01.81    9.65840313158811e+03    1.52309116554852e+00    7.58269525049436e+01    8.19659262208732e-01
01.82    9.59602483315966e+03    1.89165115661311e+00    7.47957999844221e+01    1.01282977732301e+00
01.83    9.42596872935277e+03    2.29351872436925e+00    7.35314658694678e+01    1.22923678359901e+00
01.84    9.17966254651118e+03    2.66960146262116e+00    7.21568014462267e+01    1.44143074448209e+00
01.85    8.88659434384565e+03    2.96424398799983e+00    7.06501253299922e+01    1.62309699131008e+00
01.86    8.57275660282013e+03    3.13480365376816e+00    6.88753522196461e+01    1.75284555943559e+00
01.87    8.26009085431971e+03    3.15883673475952e+00    6.66311499225225e+01    1.81708935033574e+00
01.88    7.96655330430256e+03    3.03710176203838e+00    6.37083992167870e+01    1.81149019950189e+00
01.89    7.70643892475467e+03    2.79176747259384e+00    5.99469607651741e+01    1.74081010528598e+00
01.90    7.49064619811190e+03    2.46058527896125e+00    5.52831435257221e+01    1.61737257449471e+00
01.91    7.32665195712610e+03    2.08881356493177e+00    4.97791458244774e+01    1.45859934658159e+00
01.92    7.21813500116357e+03    1.72102946672086e+00    4.36272971933264e+01    1.28418518957078e+00
01.93    7.16443740900854e+03    1.39462881271937e+00    3.71267376285648e+01    1.11342575690671e+00
01.94    7.16030772963108e+03    1.13604820503431e+00    3.06376566345283e+01    9.63081027413153e-01
01.95    7.19650081907335e+03    9.59872523300794e-01    2.45255433990786e+01    8.45998680740786e-01
