# RiF 1e-20 (cm^2/W)
# 1w(eV) RpP                     RpS                     RsP                     RsS
00.01    3.05721442422962e-05    2.88897988454791e-08    1.16472259669694e-08    9.63779077185299e-09
00.02    4.09637782177268e-05    3.87158889107671e-08    1.56091402547379e-08    1.29167006972317e-08
00.03    6.34536080150691e-05    5.99846471370037e-08    2.41850027066451e-08    2.00143799450973e-08
00.04    1.01448714353600e-04    9.59244689322098e-08    3.86770117260173e-08    3.20090719788284e-08
00.05    1.60044247282754e-04    1.51365610156586e-07    6.10336442424841e-08    5.05143342253992e-08
00.06    2.46004810529259e-04    2.32725327046922e-07    9.38438491987340e-08    7.76744523380421e-08
00.07    3.67741709094274e-04    3.47990084871225e-07    1.40330082134603e-07    1.16158974714322e-07
00.08    5.35289960151207e-04    5.06698323767121e-07    2.04341668564389e-07    1.69157596558163e-07
00.09    7.60289765147482e-04    7.19928292082499e-07    2.90350281487599e-07    2.40376873217495e-07
00.10    1.05597619735650e-03    1.00029434751909e-06    4.03448974682486e-07    3.34039957829633e-07
00.11    1.43717868600696e-03    1.36195346650821e-06    5.49355385712312e-07    4.54889876508828e-07
00.12    1.92032950540387e-03    1.82062109971082e-06    7.34418814231048e-07    6.08196112921798e-07
00.13    2.52347895115543e-03    2.39359459240816e-06    9.65630306379380e-07    7.99763794807415e-07
00.14    3.26631455812195e-03    3.09978223203774e-06    1.25063472166703e-06    1.03594465370665e-06
00.15    4.17018226741451e-03    3.95973509627691e-06    1.59774400266795e-06    1.32364912418013e-06
00.16    5.25810840265304e-03    4.99568165839436e-06    2.01595124017050e-06    1.67035925612140e-06
00.17    6.55482208894861e-03    6.23156334994087e-06    2.51494545002157e-06    2.08414236869131e-06
00.18    8.08677814937313e-03    7.69307157033832e-06    3.10512719650131e-06    2.57366555238361e-06
00.19    9.88218077503910e-03    9.40768712721097e-06    3.79762518196951e-06    3.14821116459320e-06
00.20    1.19710082881297e-02    1.14047221062037e-05    4.60431397773881e-06    3.81769344187050e-06
00.21    1.43850394884903e-02    1.37153661427298e-05    5.53783291433036e-06    4.59267636496895e-06
00.22    1.71578818948410e-02    1.63727351135775e-05    6.61160625963530e-06    5.48439284134449e-06
00.23    2.03250022673288e-02    1.94119231058381e-05    7.83986468405086e-06    6.50476531542609e-06
00.24    2.39237591093016e-02    2.28700543806059e-05    9.23766819140300e-06    7.66642787516652e-06
00.25    2.79934368388117e-02    2.67863381128772e-05    1.08209305061743e-05    8.98274991178626e-06
00.26    3.25752810092969e-02    3.12021285190821e-05    1.26064450011275e-05    1.04678614035711e-05
00.27    3.77125342685192e-02    3.61609930085299e-05    1.46119121329281e-05    1.21366798798447e-05
00.28    4.34504734508797e-02    4.17087932919609e-05    1.68559683700763e-05    1.40049391223052e-05
00.29    4.98364483249807e-02    4.78937764872992e-05    1.93582167012365e-05    1.60892196893542e-05
00.30    5.69199225294251e-02    5.47666718315033e-05    2.21392586454099e-05    1.84069813783373e-05
00.31    6.47525169210103e-02    6.23807859364380e-05    2.52207279499050e-05    2.09765977028287e-05
00.32    7.33880548212344e-02    7.07920872260315e-05    2.86253260197538e-05    2.38173925337055e-05
00.33    8.28826088085495e-02    8.00592800206293e-05    3.23768592665400e-05    2.69496790219434e-05
00.34    9.32945489888741e-02    9.02438787490769e-05    3.65002784618093e-05    3.03948009028776e-05
00.35    1.04684592468617e-01    1.01410293333064e-04    4.10217202838795e-05    3.41751763660670e-05
00.36    1.17115854572825e-01    1.13625946703351e-04    4.59685509066458e-05    3.83143447248318e-05
00.37    1.30653900980961e-01    1.26961424035252e-04    5.13694117333164e-05    4.28370160571360e-05
00.38    1.45366801211145e-01    1.41490640713723e-04    5.72542674107797e-05    4.77691241168240e-05
00.39    1.61325183198566e-01    1.57291012741385e-04    6.36544563357719e-05    5.31378825951521e-05
00.40    1.78602289636976e-01    1.74443608734837e-04    7.06027438308532e-05    5.89718449444955e-05
00.41    1.97274036635240e-01    1.93033284321125e-04    7.81333779737881e-05    6.53009678307934e-05
00.42    2.17419074589527e-01    2.13148808628811e-04    8.62821478704007e-05    7.21566785638788e-05
00.43    2.39118850623646e-01    2.34883000544765e-04    9.50864442516217e-05    7.95719466118508e-05
00.44    2.62457671115627e-01    2.58332892185552e-04    1.04585322435179e-04    8.75813595622971e-05
00.45    2.87522763856586e-01    2.83599929617153e-04    1.14819568422924e-04    9.62212037553882e-05
00.46    3.14404339961682e-01    3.10790217490632e-04    1.25831768351724e-04    1.05529550122087e-04
00.47    3.43195656045703e-01    3.40014795452588e-04    1.37666381550484e-04    1.15546345696743e-04
00.48    3.73993078878310e-01    3.71389923737079e-04    1.50369817221240e-04    1.26313511522188e-04
00.49    4.06896153708333e-01    4.05037343618403e-04    1.63990514361699e-04    1.37875047283549e-04
00.50    4.42007676047704e-01    4.41084511631987e-04    1.78579025219964e-04    1.50277142761043e-04
00.51    4.79433765913920e-01    4.79664822883514e-04    1.94188102216551e-04    1.63568296166782e-04
00.52    5.19283941060277e-01    5.20917868078351e-04    2.10872788868369e-04    1.77799439764725e-04
00.53    5.61671187254464e-01    5.64989758124907e-04    2.28690514129244e-04    1.93024073717310e-04
00.54    6.06712024110367e-01    6.12033498594032e-04    2.47701190463248e-04    2.09298409492728e-04
00.55    6.54526567815713e-01    6.62209384508045e-04    2.67967315704052e-04    2.26681524319172e-04
00.56    7.05238592443886e-01    7.15685378777218e-04    2.89554080546436e-04    2.45235527136871e-04
00.57    7.58975594097344e-01    7.72637481495896e-04    3.12529481928242e-04    2.65025735250761e-04
00.58    8.15868855986386e-01    8.33250131535661e-04    3.36964443769863e-04    2.86120863511465e-04
00.59    8.76053520219575e-01    8.97716676796477e-04    3.62932943655663e-04    3.08593224540641e-04
00.60    9.39668652771632e-01    9.66239909671752e-04    3.90512143067990e-04    3.32518943616118e-04
00.61    1.00685730113387e+00    1.03903263586659e-03    4.19782520208384e-04    3.57978191787196e-04
00.62    1.07776654548482e+00    1.11631827694330e-03    4.50828005674617e-04    3.85055438783052e-04
00.63    1.15254753380547e+00    1.19833150743182e-03    4.83736121629002e-04    4.13839730375356e-04
00.64    1.23135551857740e+00    1.28531896223605e-03    5.18598126148959e-04    4.44424986147433e-04
00.65    1.31434989610595e+00    1.37754001689565e-03    5.55509163074175e-04    4.76910313549668e-04
00.66    1.40169425463627e+00    1.47526758478343e-03    5.94568417621539e-04    5.11400335102431e-04
00.67    1.49355642317620e+00    1.57878892267682e-03    6.35879274981110e-04    5.48005529030028e-04
00.68    1.59010850018791e+00    1.68840643278514e-03    6.79549486287419e-04    5.86842596221708e-04
00.69    1.69152684780636e+00    1.80443855566223e-03    7.25691343458796e-04    6.28034869868748e-04
00.70    1.79799206261088e+00    1.92722078735292e-03    7.74421864936744e-04    6.71712781044951e-04
00.71    1.90968892229137e+00    2.05710684569442e-03    8.25862987332656e-04    7.18014381535386e-04
00.72    2.02680634116042e+00    2.19446992655240e-03    8.80141751043580e-04    7.67085914931192e-04
00.73    2.14953732771674e+00    2.33970397949913e-03    9.37390471217981e-04    8.19082420443802e-04
00.74    2.27807893186425e+00    2.49322504585507e-03    9.97746892651274e-04    8.74168364259785e-04
00.75    2.41263216893244e+00    2.65547268959783e-03    1.06135434372869e-03    9.32518303234643e-04
00.76    2.55340191703716e+00    2.82691164411173e-03    1.12836190163253e-03    9.94317603980302e-04
00.77    2.70059679947229e+00    3.00803367835231e-03    1.19892457936337e-03    1.05976323768279e-03
00.78    2.85442900593502e+00    3.19935969629240e-03    1.27320351525889e-03    1.12906467735317e-03
00.79    3.01511398295435e+00    3.40144205920543e-03    1.35136614340001e-03    1.20244490578248e-03
00.80    3.18286996694450e+00    3.61486710574569e-03    1.43358632805401e-03    1.28014152977113e-03
00.81    3.35791735396797e+00    3.84025784782057e-03    1.52004445478762e-03    1.36240798528353e-03
00.82    3.54047807742047e+00    4.07827684198769e-03    1.61092748410090e-03    1.44951483017566e-03
00.83    3.73077510640507e+00    4.32962923507208e-03    1.70642897243577e-03    1.54175114388694e-03
00.84    3.92903214765209e+00    4.59506607133634e-03    1.80674903933839e-03    1.63942608492435e-03
00.85    4.13547340193365e+00    4.87538805231142e-03    1.91209425630488e-03    1.74287066481295e-03
00.86    4.35032314694551e+00    5.17144987627249e-03    2.02267741999129e-03    1.85243978256646e-03
00.87    4.57380490491302e+00    5.48416531426237e-03    2.13871717276850e-03    1.96851453099977e-03
00.88    4.80614002681142e+00    5.81451294673108e-03    2.26043743947951e-03    2.09150476434151e-03
00.89    5.04754573797254e+00    6.16354250653195e-03    2.38806664774867e-03    2.22185193878953e-03
00.90    5.29823286686707e+00    6.53238187278567e-03    2.52183667764584e-03    2.36003227389226e-03
00.91    5.55840341313102e+00    6.92224486429479e-03    2.66198147795831e-03    2.50656035052459e-03
00.92    5.82824811447799e+00    7.33444011400051e-03    2.80873525327985e-03    2.66199326323358e-03
00.93    6.10794400119387e+00    7.77038148478570e-03    2.96233015896165e-03    2.82693545146078e-03
00.94    6.39765187211241e+00    8.23160033882966e-03    3.12299347603652e-03    3.00204428730976e-03
00.95    6.69751373187555e+00    8.71976008817080e-03    3.29094427040164e-03    3.18803648726882e-03
00.96    7.00765036787533e+00    9.23667344694674e-03    3.46638955310436e-03    3.38569549044815e-03
00.97    7.32815931863097e+00    9.78432275685957e-03    3.64951986555179e-03    3.59588007136647e-03
00.98    7.65911346309873e+00    1.03648837320879e-02    3.84050408779925e-03    3.81953462108791e-03
00.99    8.00056010074082e+00    1.09807522893591e-02    4.03948313371378e-03    4.05770149491107e-03
01.00    8.35252014471759e+00    1.16345731124733e-02    4.24656217595508e-03    4.31153540495594e-03
01.01    8.71498705971715e+00    1.23292656450600e-02    4.46180134454603e-03    4.58231874201079e-03
01.02    9.08792548899697e+00    1.30680399959682e-02    4.68520550582273e-03    4.87147504374518e-03
01.03    9.47127043824905e+00    1.38543917618163e-02    4.91671505970729e-03    5.18057605667624e-03
01.04    9.86492880340825e+00    1.46920652090738e-02    5.15620141164278e-03    5.51133726520411e-03
01.05    1.02687856573566e+01    1.55849821684929e-02    5.40347258132231e-03    5.86559909846919e-03
01.06    1.06827171042360e+01    1.65371515501309e-02    5.65829523065093e-03    6.24529756299414e-03
01.07    1.11066094315448e+01    1.75526000623753e-02    5.92043815022124e-03    6.65243836499444e-03
01.08    1.15403808375255e+01    1.86353879205752e-02    6.18973791432890e-03    7.08909911143026e-03
01.09    1.19839980313128e+01    1.97897794916811e-02    6.46618013163796e-03    7.55748825806341e-03
01.10    1.24374777150702e+01    2.10206091865196e-02    6.74998135844269e-03    8.06007951556304e-03
01.11    1.29008640890434e+01    2.23338103985778e-02    7.04165116228029e-03    8.59981205988259e-03
01.12    1.33741792182083e+01    2.37369711412574e-02    7.34201610203429e-03    9.18030401041241e-03
01.13    1.38573526245231e+01    2.52396799449946e-02    7.65220190011029e-03    9.80598345336804e-03
01.14    1.43501467681737e+01    2.68533851210817e-02    7.97359774407098e-03    1.04820206203908e-02
01.15    1.48521022863698e+01    2.85905584591467e-02    8.30786250143154e-03    1.12139687160349e-02
01.16    1.53625268887670e+01    3.04631519770547e-02    8.65706511599022e-03    1.20071001486631e-02
01.17    1.58805437298694e+01    3.24806271120377e-02    9.02406432475682e-03    1.28655479655664e-02
01.18    1.64051995980157e+01    3.46481325192168e-02    9.41320980539746e-03    1.37914939960291e-02
01.19    1.69356156387741e+01    3.69655875786483e-02    9.83137795908000e-03    1.47847344660771e-02
01.20    1.74711485768963e+01    3.94283876405030e-02    1.02892426446965e-02    1.58429513781271e-02
01.21    1.80115243196538e+01    4.20301342515901e-02    1.08025419398005e-02    1.69628967083021e-02
01.22    1.85569097441548e+01    4.47672491629027e-02    1.13929698043093e-02    1.81424654555440e-02
01.23    1.91078999290543e+01    4.76446831916183e-02    1.20882415777058e-02    1.93833426452794e-02
01.24    1.96654115871012e+01    5.06813649284865e-02    1.29209027890828e-02    2.06936372952485e-02
01.25    2.02304826366447e+01    5.39137442092171e-02    1.39256090810654e-02    2.20897516274580e-02
01.26    2.08039805258071e+01    5.73959019726049e-02    1.51349108596069e-02    2.35967479950811e-02
01.27    2.13862220179161e+01    6.11952722784668e-02    1.65739985536875e-02    2.52467009673758e-02
01.28    2.19765113078180e+01    6.53839668767893e-02    1.82553280026222e-02    2.70749365481927e-02
01.29    2.25726198114467e+01    7.00268166155183e-02    2.01744468754568e-02    2.91145886688635e-02
01.30    2.31702603532230e+01    7.51683087007276e-02    2.23085801614313e-02    3.13904295842442e-02
01.31    2.37626460600473e+01    8.08213215903818e-02    2.46195403504903e-02    3.39133258723512e-02
01.32    2.43402581145159e+01    8.69607492382658e-02    2.70622992205968e-02    3.66768236307830e-02
01.33    2.48909655071816e+01    9.35246456106741e-02    2.96001412560867e-02    3.96572083875589e-02
01.34    2.54006374465308e+01    1.00424433933067e-01    3.22267874520292e-02    4.28179138456505e-02
01.35    2.58543631115671e+01    1.07564175441828e-01    3.49952937132785e-02    4.61184309112403e-02
01.36    2.62383457921808e+01    1.14867136550560e-01    3.80529122723403e-02    4.95270113613932e-02
01.37    2.65424653262192e+01    1.22306254670589e-01    4.16804435160229e-02    5.30356183405576e-02
01.38    2.67633942267892e+01    1.29933894055721e-01    4.63338758134001e-02    5.66749054499363e-02
01.39    2.69079935448897e+01    1.37905750214961e-01    5.26853235373577e-02    6.05266469132097e-02
01.40    2.69964956824266e+01    1.46494033198803e-01    6.16595176301617e-02    6.47310891244793e-02
01.41    2.70647181570925e+01    1.56086152508330e-01    7.44615699125327e-02    6.94871843206708e-02
01.42    2.71642997630258e+01    1.67166918736797e-01    9.25917539520034e-02    7.50445602230381e-02
01.43    2.73598073567682e+01    1.80284548862884e-01    1.17844018391450e-01    8.16872487122263e-02
01.44    2.77216578717792e+01    1.96003172381287e-01    1.52287194409642e-01    8.97104492928396e-02
01.45    2.83142673146296e+01    2.14846761015718e-01    1.98231176648314e-01    9.93927113919224e-02
01.46    2.91797650720841e+01    2.37241101104438e-01    2.58183538545281e-01    1.10966695546196e-01
01.47    3.03190085357726e+01    2.63461516362891e-01    3.34802525910094e-01    1.24592061090907e-01
01.48    3.16733954838547e+01    2.93594605973969e-01    4.30846763949052e-01    1.40334165192959e-01
01.49    3.31128672716361e+01    3.27522650775668e-01    5.49107740150877e-01    1.58152478862779e-01
01.50    3.44371616441102e+01    3.64939816727197e-01    6.92289257001033e-01    1.77903285218483e-01
01.51    3.53983439856204e+01    4.05409673709292e-01    8.62776571849639e-01    1.99362362845731e-01
01.52    3.57524154070130e+01    4.48472639777814e-01    1.06223280199940e+00    2.22274277813870e-01
01.53    3.53459111809080e+01    4.93807514252460e-01    1.29099170059018e+00    2.46434008480994e-01
01.54    3.42395211374525e+01    5.41440377904608e-01    1.54729800598964e+00    2.71801485791944e-01
01.55    3.28645554091517e+01    5.91974829743751e-01    1.82657352752377e+00    2.98638031982345e-01
01.56    3.21993289954227e+01    6.46791756097842e-01    2.12102715280797e+00    3.27635886042377e-01
01.57    3.39420851543304e+01    7.08142073167593e-01    2.42002954961660e+00    3.59992535432244e-01
01.58    4.06481603450417e+01    7.79044791710801e-01    2.71168362881172e+00    3.97369500942979e-01
01.59    5.57982987316612e+01    8.62919876418006e-01    2.98589781401312e+00    4.41682292555422e-01
01.60    8.37817169250449e+01    9.62938081927009e-01    3.23901177442653e+00    4.94702515967586e-01
01.61    1.29819157400664e+02    1.08115037467268e+00    3.47970081917225e+00    5.57511833246529e-01
01.62    1.99913388877091e+02    1.21754402763521e+00    3.73559189809790e+00    6.29913896301238e-01
01.63    3.00969435871604e+02    1.36922596232098e+00    4.05979917378885e+00    7.09955846807399e-01
01.64    4.41220968921686e+02    1.52993016450583e+00    4.53636214346615e+00    7.93709287342273e-01
01.65    6.30976214889514e+02    1.68999090854712e+00    5.28321392008426e+00    8.75406917967224e-01
01.66    8.83441102293282e+02    1.83685284670144e+00    6.45072618928454e+00    9.47947852463410e-01
01.67    1.21506093716357e+03    1.95613846582748e+00    8.21315511928215e+00    1.00370870649996e+00
01.68    1.64461497828634e+03    2.03326093109414e+00    1.07499207821631e+01    1.03555368233734e+00
01.69    2.19041185214905e+03    2.05550813104284e+00    1.42145587110762e+01    1.03792010653037e+00
01.70    2.86549405773836e+03    2.01438306245554e+00    1.86924987370325e+01    1.00784119214304e+00
01.71    3.67167381981501e+03    1.90778627796630e+00    2.41548124596977e+01    9.45741749882874e-01
01.72    4.59413388265738e+03    1.74148021049512e+00    3.04219402935334e+01    8.55825842182941e-01
01.73    5.59873693523036e+03    1.52932140914802e+00    3.71551297016859e+01    7.45909141882641e-01
01.74    6.63372100206725e+03    1.29203157147395e+00    4.38894412785887e+01    6.26652868739958e-01
01.75    7.63613279502528e+03    1.05469006651428e+00    5.01092687543822e+01    5.10299514293252e-01
01.76    8.54166012835798e+03    8.43460261706865e-01    5.53495486998656e+01    4.09126913145254e-01
01.77    9.29523000848577e+03    6.82153598314715e-01    5.92919898882503e+01    3.33875610765850e-01
01.78    9.85946117145974e+03    5.89102341159286e-01    6.18241223376790e+01    2.92367885651459e-01
01.79    1.02189168364100e+04    5.74616907996013e-01    6.30419349464845e+01    2.88473204813997e-01
01.80    1.03796458854095e+04    6.39219201260979e-01    6.31982524608771e+01    3.21531023043478e-01
01.81    1.03649882725821e+04    7.72910054347849e-01    6.26180749223627e+01    3.86323545795013e-01
01.82    1.02094491601490e+04    9.55823065288465e-01    6.16102160726914e+01    4.73664048938378e-01
01.83    9.95244091695339e+03    1.16054909581530e+00    6.03999861306924e+01    5.71592514495819e-01
01.84    9.63310362219854e+03    1.35608259735634e+00    5.90953368657628e+01    6.67046315601734e-01
01.85    9.28667978115929e+03    1.51282185329098e+00    5.76862517482263e+01    7.47740145272150e-01
01.86    8.94238139449643e+03    1.60758435076773e+00    5.60694026267798e+01    8.03907148661212e-01
01.87    8.62245520215059e+03    1.62743322308810e+00    5.40880485081253e+01    8.29566965846360e-01
01.88    8.34213297537455e+03    1.57137585503226e+00    5.15784037027553e+01    8.23098726577706e-01
01.89    8.11019539673619e+03    1.44960419041532e+00    4.84152383046536e+01    7.87067674883235e-01
01.90    7.92989201982216e+03    1.28064829282034e+00    4.45498612599783e+01    7.27422783845731e-01
01.91    7.79996161578305e+03    1.08733393079201e+00    4.00335566183986e+01    6.52297105253466e-01
01.92    7.71555745141172e+03    8.92608142763780e-01    3.50207917340080e+01    5.70679086136503e-01
01.93    7.66904399027871e+03    7.16133893095237e-01    2.97503678608478e+01    4.91191846115017e-01
01.94    7.65085548424304e+03    5.72189965855245e-01    2.45086698727460e+01    4.21148122472490e-01
01.95    7.65077679584386e+03    4.69002895314335e-01    1.95850092886104e+01    3.65969994806170e-01
