# RiF 1e-20 (cm^2/W)
# 1w(eV) RpP                     RpS                     RsP                     RsS
00.01    9.82654494934852e-08    4.59909455100721e-09    7.14285530229525e-11    2.51483194845236e-09
00.02    1.31627687100227e-07    6.16360396444052e-09    9.56969294208520e-11    3.37034617762514e-09
00.03    2.03812044099564e-07    9.55013277769850e-09    1.48213658262979e-10    5.22219916013209e-09
00.04    3.25712961819376e-07    1.52729735571372e-08    2.36922796821136e-10    8.35164475554046e-09
00.05    5.13607617348564e-07    2.41016875259692e-08    3.73699850167920e-10    1.31795448570118e-08
00.06    7.89078551387553e-07    3.70588437768102e-08    5.74302984022089e-10    2.02651425341672e-08
00.07    1.17891734269199e-06    5.54173172619991e-08    8.58312832966535e-10    3.03045958620207e-08
00.08    1.71502199509228e-06    8.06977255690349e-08    1.24907021409253e-09    4.41295931621379e-08
00.09    2.43430322310794e-06    1.14666712883922e-07    1.77362270494080e-09    6.27064358159750e-08
00.10    3.37861182327278e-06    1.59336645280853e-07    2.46268906642553e-09    8.71359002215222e-08
00.11    4.59469234352328e-06    2.16966968493014e-07    3.35064517090987e-09    1.18654013077850e-07
00.12    6.13416058339701e-06    2.90067117299488e-07    4.47552917433204e-09    1.58633680053740e-07
00.13    8.05349745903587e-06    3.81400647572808e-07    5.87906058455540e-09    2.08586983388485e-07
00.14    1.04140504927836e-05    4.93990215250729e-07    7.60666629059531e-09    2.70167931838654e-07
00.15    1.32820358992733e-05    6.31123066007193e-07    9.70750916981317e-09    3.45175497117419e-07
00.16    1.67285374513122e-05    7.96356902784939e-07    1.22345168025229e-08    4.35556850629507e-07
00.17    2.08295011643002e-05    9.93526047239485e-07    1.52444103619110e-08    5.43410782047349e-07
00.18    2.56657265437141e-05    1.22674794625385e-06    1.87977346304333e-08    6.70991325490174e-07
00.19    3.13228560285142e-05    1.50043011738690e-06    2.29588892133958e-08    8.20711631599288e-07
00.20    3.78913636242656e-05    1.81927759254544e-06    2.77961608998900e-08    9.95148116597574e-07
00.21    4.54665433391026e-05    2.18830096769965e-06    3.33817564032829e-08    1.19704492329216e-06
00.22    5.41484973664935e-05    2.61282503298683e-06    3.97918360525534e-08    1.42931871224064e-06
00.23    6.40421234285702e-05    3.09849803311018e-06    4.71065485153208e-08    1.69506381107628e-06
00.24    7.52571016452422e-05    3.65130148436699e-06    5.54100685039175e-08    1.99755774117663e-06
00.25    8.79078812599220e-05    4.27756064549236e-06    6.47906372689242e-08    2.34026713443413e-06
00.26    1.02113668312916e-04    4.98395575560708e-06    7.53406050007978e-08    2.72685405882243e-06
00.27    1.17998414741923e-04    5.77753413902597e-06    8.71564744388428e-08    3.16118276162403e-06
00.28    1.35690808648448e-04    6.66572334760356e-06    1.00338945800054e-07    3.64732684837671e-06
00.29    1.55324264346997e-04    7.65634527081353e-06    1.14992964237787e-07    4.18957691246673e-06
00.30    1.77036910805351e-04    8.75763111656794e-06    1.31227770599519e-07    4.79244864717838e-06
00.31    2.00971577746915e-04    9.97823708301670e-06    1.49156956126041e-07    5.46069145691201e-06
00.32    2.27275779160738e-04    1.13272605047516e-05    1.68898518682513e-07    6.19929759757195e-06
00.33    2.56101694768948e-04    1.28142565528141e-05    1.90574919975295e-07    7.01351187972174e-06
00.34    2.87606151535726e-04    1.44492558546597e-05    2.14313140966733e-07    7.90884195925548e-06
00.35    3.21950606473807e-04    1.62427834516006e-05    2.40244735684476e-07    8.89106927172556e-06
00.36    3.59301134486544e-04    1.82058797982786e-05    2.68505884386974e-07    9.96626068836610e-06
00.37    3.99828422116723e-04    2.03501238417628e-05    2.99237448114885e-07    1.11407809316432e-05
00.38    4.43707766569678e-04    2.26876578685631e-05    3.32585031112070e-07    1.24213058351173e-05
00.39    4.91119073957030e-04    2.52312136036963e-05    3.68699053265266e-07    1.38148364321562e-05
00.40    5.42246850879241e-04    2.79941389654317e-05    4.07734831702494e-07    1.53287139049475e-05
00.41    5.97280185283965e-04    3.09904255488604e-05    4.49852665380223e-07    1.69706353990691e-05
00.42    6.56412719190029e-04    3.42347372993598e-05    4.95217910595341e-07    1.87486707903434e-05
00.43    7.19842622503194e-04    3.77424410841162e-05    5.44001045532903e-07    2.06712804804256e-05
00.44    7.87772578081198e-04    4.15296399301908e-05    5.96377720231146e-07    2.27473343330128e-05
00.45    8.60409783854906e-04    4.56132093238052e-05    6.52528804540904e-07    2.49861318336554e-05
00.46    9.37965969355743e-04    5.00108368676294e-05    7.12640441157131e-07    2.73974235820935e-05
00.47    1.02065741571126e-03    5.47410649402235e-05    7.76904106332416e-07    2.99914341919426e-05
00.48    1.10870496597494e-03    5.98233357471384e-05    8.45516683854012e-07    3.27788867283228e-05
00.49    1.20233401747245e-03    6.52780379045702e-05    9.18680543133254e-07    3.57710287750155e-05
00.50    1.30177450212389e-03    7.11265546283736e-05    9.96603630361763e-07    3.89796601886434e-05
00.51    1.40726086233914e-03    7.73913141984227e-05    1.07949956013520e-06    4.24171625674176e-05
00.52    1.51903204038965e-03    8.40958443543714e-05    1.16758770203659e-06    4.60965305803546e-05
00.53    1.63733148481320e-03    9.12648319311751e-05    1.26109324659469e-06    5.00314053378250e-05
00.54    1.76240717131646e-03    9.89241876113396e-05    1.36024724321268e-06    5.42361100989196e-05
00.55    1.89451162998217e-03    1.07101115455797e-04    1.46528660561844e-06    5.87256886903173e-05
00.56    2.03390197048495e-03    1.15824185953673e-04    1.57645413584801e-06    6.35159468224175e-05
00.57    2.18083990470636e-03    1.25123413197686e-04    1.69399855422892e-06    6.86234961848523e-05
00.58    2.33559176421916e-03    1.35030337253836e-04    1.81817458696790e-06    7.40658017895684e-05
00.59    2.49842851985752e-03    1.45578112813228e-04    1.94924309131388e-06    7.98612321305300e-05
00.60    2.66962580603873e-03    1.56801605112768e-04    2.08747114242503e-06    8.60291129028958e-05
00.61    2.84946395468427e-03    1.68737493337222e-04    2.23313208718205e-06    9.25897850928471e-05
00.62    3.03822804729556e-03    1.81424382372260e-04    2.38650553509035e-06    9.95646678805776e-05
00.63    3.23620798116494e-03    1.94902924720729e-04    2.54787728036257e-06    1.06976327703022e-04
00.64    3.44369854211323e-03    2.09215952138845e-04    2.71753920770374e-06    1.14848552436911e-04
00.65    3.66099947405071e-03    2.24408616345452e-04    2.89578919463444e-06    1.23206429808583e-04
00.66    3.88841554100570e-03    2.40528535462162e-04    3.08293105290063e-06    1.32076428983538e-04
00.67    4.12625659311139e-03    2.57625946837226e-04    3.27927442588810e-06    1.41486485452631e-04
00.68    4.37483764065433e-03    2.75753868589287e-04    3.48513477999242e-06    1.51466092411423e-04
00.69    4.63447893645274e-03    2.94968277514851e-04    3.70083345391446e-06    1.62046402703340e-04
00.70    4.90550606572549e-03    3.15328308245146e-04    3.92669782526691e-06    1.73260344748479e-04
00.71    5.18825004202058e-03    3.36896476777463e-04    4.16306140923482e-06    1.85142752669565e-04
00.72    5.48304744199517e-03    3.59738926879514e-04    4.41026363477864e-06    1.97730508251123e-04
00.73    5.79024059158707e-03    3.83925694861016e-04    4.66864914913576e-06    2.11062691081351e-04
00.74    6.11017781064305e-03    4.09530992685299e-04    4.93856665915831e-06    2.25180735851689e-04
00.75    6.44321366563543e-03    4.36633507799174e-04    5.22036777412358e-06    2.40128598339756e-04
00.76    6.78970918446289e-03    4.65316726448242e-04    5.51440623274654e-06    2.55952935834559e-04
00.77    7.15003199814022e-03    4.95669284382739e-04    5.82103779472573e-06    2.72703307074109e-04
00.78    7.52455645406963e-03    5.27785355594050e-04    6.14062045841258e-06    2.90432397388608e-04
00.79    7.91366377298096e-03    5.61765086179487e-04    6.47351445642756e-06    3.09196270350734e-04
00.80    8.31774232004912e-03    5.97715074982368e-04    6.82008169177021e-06    3.29054644533690e-04
00.81    8.73718799943244e-03    6.35748899151918e-04    7.18068436153293e-06    3.50071191798617e-04
00.82    9.17240469723197e-03    6.75987682393679e-04    7.55568305126357e-06    3.72313857309191e-04
00.83    9.62380473189179e-03    7.18560710328064e-04    7.94543472949025e-06    3.95855207078839e-04
00.84    1.00918092815345e-02    7.63606112414448e-04    8.35029067525546e-06    4.20772816735085e-04
00.85    1.05768488506658e-02    8.11271634648898e-04    8.77059444988871e-06    4.47149715878273e-04
00.86    1.10793638265590e-02    8.61715523166705e-04    9.20667952838868e-06    4.75074898272490e-04
00.87    1.15998051624798e-02    9.15107530054515e-04    9.65886604638942e-06    5.04643899749791e-04
00.88    1.21386351310416e-02    9.71630037734265e-04    1.01274562556711e-05    5.35959439792930e-04
00.89    1.26963280812684e-02    1.03147930504533e-03    1.06127286759431e-05    5.69132130077038e-04
00.90    1.32733711634061e-02    1.09486685443101e-03    1.11149309648868e-05    6.04281263244769e-04
00.91    1.38702650685056e-02    1.16202104191236e-03    1.16342719358157e-05    6.41535712124345e-04
00.92    1.44875248829998e-02    1.23318886197947e-03    1.21709124580644e-05    6.81034970150870e-04
00.93    1.51256811914064e-02    1.30863804276046e-03    1.27249554737075e-05    7.22930363228735e-04
00.94    1.57852814492921e-02    1.38865946790883e-03    1.32964353538288e-05    7.67386449548970e-04
00.95    1.64668915297389e-02    1.47356996593066e-03    1.38853067600103e-05    8.14582622170324e-04
00.96    1.71710972821579e-02    1.56371553401366e-03    1.44914330109355e-05    8.64714950378707e-04
00.97    1.78985059867435e-02    1.65947511467586e-03    1.51145723027480e-05    9.17998330188975e-04
00.98    1.86497479381792e-02    1.76126510186038e-03    1.57543588084769e-05    9.74669058249972e-04
00.99    1.94254787297969e-02    1.86954471859463e-03    1.64102747690730e-05    1.03498793196641e-03
01.00    2.02263831265903e-02    1.98482221315535e-03    1.70816107433186e-05    1.09924386788481e-03
01.01    2.10531810665444e-02    2.10766131730401e-03    1.77674156017109e-05    1.16775774959744e-03
01.02    2.19066355654435e-02    2.23868670366625e-03    1.84664430218042e-05    1.24088579104907e-03
01.03    2.27875607570547e-02    2.37858643195038e-03    1.91771107315695e-05    1.31902125619902e-03
01.04    2.36968268279574e-02    2.52810920154053e-03    1.98974969409738e-05    1.40259323539957e-03
01.05    2.46353576375477e-02    2.68805534571285e-03    2.06254039834850e-05    1.49206177833841e-03
01.06    2.56041173399376e-02    2.85926344367069e-03    2.13585141393222e-05    1.58791034448258e-03
01.07    2.66040849357510e-02    3.04259897831032e-03    2.20946425579143e-05    1.69063914513151e-03
01.08    2.76362203884177e-02    3.23895600728299e-03    2.28320560250245e-05    1.80076561264074e-03
01.09    2.87014316854270e-02    3.44928447059462e-03    2.35697838213241e-05    1.91883925175232e-03
01.10    2.98005565472547e-02    3.67465117120864e-03    2.43078182767484e-05    2.04547559444834e-03
01.11    3.09343732917765e-02    3.91632982602247e-03    2.50471132547190e-05    2.18140678871664e-03
01.12    3.21036504647208e-02    4.17589664576991e-03    2.57893568810482e-05    2.32753549772106e-03
01.13    3.33092347973124e-02    4.45528899935847e-03    2.65366189756831e-05    2.48496788112376e-03
01.14    3.45521647550783e-02    4.75677591630144e-03    2.72911219662588e-05    2.65499624156602e-03
01.15    3.58337860958178e-02    5.08280008943129e-03    2.80554941894234e-05    2.83900801591218e-03
01.16    3.71558408823369e-02    5.43568624988744e-03    2.88338649844282e-05    3.03831787720454e-03
01.17    3.85205031910357e-02    5.81726489911078e-03    2.96339950343476e-05    3.25395082438782e-03
01.18    3.99303425674217e-02    6.22851781449753e-03    3.04702985314432e-05    3.48643735358384e-03
01.19    4.13882064303037e-02    6.66938997948055e-03    3.13671761707453e-05    3.73570421109034e-03
01.20    4.28970224040541e-02    7.13891034668371e-03    3.23616765239762e-05    4.00114341818299e-03
01.21    4.44595305419022e-02    7.63570962652171e-03    3.35043123521426e-05    4.28191146212142e-03
01.22    4.60779665465621e-02    8.15892175189791e-03    3.48570212901573e-05    4.57745216226147e-03
01.23    4.77537345792317e-02    8.70932897885311e-03    3.64878267964975e-05    4.88816338419808e-03
01.24    4.94871332423447e-02    9.29049346279880e-03    3.84626364498434e-05    5.21605941229081e-03
01.25    5.12772249546176e-02    9.90954909786365e-03    4.08355812291966e-05    5.56523967082539e-03
01.26    5.31219526656413e-02    1.05773368226989e-02    4.36400362612546e-05    5.94197852298584e-03
01.27    5.50185906553319e-02    1.13076676316902e-02    4.68826823376071e-05    6.35430798236515e-03
01.28    5.69645548973949e-02    1.21156794278585e-02    5.05425070129260e-05    6.81106976331717e-03
01.29    5.89584945167467e-02    1.30154824210674e-02    5.45755804157111e-05    7.32054596327116e-03
01.30    6.10014635488925e-02    1.40175128701935e-02    5.89250997027898e-05    7.88890968360963e-03
01.31    6.30978708841924e-02    1.51261803173592e-02    6.35350853908023e-05    8.51883549405645e-03
01.32    6.52558713994502e-02    1.63384525120596e-02    6.83657626620343e-05    9.20864685882318e-03
01.33    6.74869226296135e-02    1.76439478957948e-02    7.34094099882466e-05    9.95233693847087e-03
01.34    6.98043879961333e-02    1.90268982634144e-02    7.87072652400019e-05    1.07406800224091e-02
01.35    7.22212839587043e-02    2.04700324910715e-02    8.43704322632933e-05    1.15634690565926e-02
01.36    7.47474844817522e-02    2.19600666831798e-02    9.06097213181314e-05    1.24126999011142e-02
01.37    7.73868489662146e-02    2.34941307158710e-02    9.77798922199684e-05    1.32863125567174e-02
01.38    8.01347926287996e-02    2.50861819281831e-02    1.06441938641144e-04    1.41919329512116e-02
01.39    8.29767717729106e-02    2.67723112867081e-02    1.17442440204441e-04    1.51499706385873e-02
01.40    8.58880477591710e-02    2.86138734494856e-02    1.32002066178003e-04    1.61954415727259e-02
01.41    8.88349775467362e-02    3.06975827365597e-02    1.51797465138835e-04    1.73780095464476e-02
01.42    9.17779929421358e-02    3.31320914411065e-02    1.79014441083729e-04    1.87599644333727e-02
01.43    9.46763832046502e-02    3.60410514044294e-02    2.16348513195063e-04    2.04121482898835e-02
01.44    9.74949558357733e-02    3.95531727056196e-02    2.66934430945884e-04    2.24081534846518e-02
01.45    1.00212565754418e-01    4.37902460340847e-02    3.34199671264218e-04    2.48173937112938e-02
01.46    1.02832325435316e-01    4.88544173623675e-02    4.21655752124367e-04    2.76978425332429e-02
01.47    1.05393017429306e-01    5.48161879805547e-02    5.32658022082538e-04    3.10893315227692e-02
01.48    1.07980859260966e-01    6.17047265352754e-02    6.70169606683715e-04    3.50083368136797e-02
01.49    1.10740432004455e-01    6.95022571336920e-02    8.36549492464723e-04    3.94452424884034e-02
01.50    1.13883457564422e-01    7.81446388096070e-02    1.03334720941363e-03    4.43652380082529e-02
01.51    1.17694352086207e-01    8.75307291516599e-02    1.26103972835091e-03    4.97142894073803e-02
01.52    1.22532076790255e-01    9.75433705679895e-02    1.51861714687778e-03    5.54318408688699e-02
01.53    1.28828400307741e-01    1.08084156691951e-01    1.80294663925191e-03    6.14716476307406e-02
01.54    1.37082567358809e-01    1.19121630582914e-01    2.10794025390829e-03    6.78308260828704e-02
01.55    1.47850838241075e-01    1.30747580866869e-01    2.42370866534205e-03    7.45843133915190e-02
01.56    1.61726568030162e-01    1.43229004867385e-01    2.73604438984637e-03    8.19175137786266e-02
01.57    1.79304073067962e-01    1.57036062668393e-01    3.02666141028238e-03    9.01450496627198e-02
01.58    2.01120408800427e-01    1.72822440874800e-01    3.27454451176598e-03    9.97003999882337e-02
01.59    2.27576103484255e-01    1.91338075229278e-01    3.45850353497789e-03    1.11082574394483e-01
01.60    2.58848699395167e-01    2.13267741312867e-01    3.56065880099399e-03    1.24753915815464e-01
01.61    2.94826419117556e-01    2.39011472970387e-01    3.57027981807019e-03    1.40997463222159e-01
01.62    3.35094062261794e-01    2.68448113583802e-01    3.48735952043111e-03    1.59759577930302e-01
01.63    3.78990335428445e-01    3.00741575699804e-01    3.32561583464163e-03    1.80517227729197e-01
01.64    4.25723627762848e-01    3.34251121217074e-01    3.11510322784271e-03    2.02212569845136e-01
01.65    4.74493299630119e-01    3.66589022719582e-01    2.90488095842217e-03    2.23286992553810e-01
01.66    5.24538487093588e-01    3.94836949504095e-01    2.76583962887481e-03    2.41825108564448e-01
01.67    5.75048225192731e-01    4.15897806108155e-01    2.79276966257201e-03    2.55793648529419e-01
01.68    6.24921522409883e-01    4.26932876033365e-01    3.10342897240052e-03    2.63338758318414e-01
01.69    6.72446252777227e-01    4.25818571486581e-01    3.83149525879479e-03    2.63092395081385e-01
01.70    7.15035476039989e-01    4.11550536171124e-01    5.11078560258049e-03    2.54434715293019e-01
01.71    7.49182149752646e-01    3.84523478270174e-01    7.05058068297679e-03    2.37663594499324e-01
01.72    7.70749170521750e-01    3.46626302204665e-01    9.70601094997730e-03    2.14035091544331e-01
01.73    7.75609658407390e-01    3.01119179633547e-01    1.30517242129468e-02    1.85660380433285e-01
01.74    7.60524966735384e-01    2.52300612961266e-01    1.69690031277641e-02    1.55272361174452e-01
01.75    7.24040513124107e-01    2.05015378976328e-01    2.12540140155509e-02    1.25900481278707e-01
01.76    6.67135946912215e-01    1.64080873171711e-01    2.56478828750752e-02    1.00505789150424e-01
01.77    5.93412352125241e-01    1.33710858558563e-01    2.98806391957503e-02    8.16264362019492e-02
01.78    5.08728317942249e-01    1.16999401857961e-01    3.37152571412168e-02    7.10724834987649e-02
01.79    4.20364273598443e-01    1.15511584972994e-01    3.69783969987663e-02    6.96982787952277e-02
01.80    3.35933165148236e-01    1.29024169737496e-01    3.95707742621509e-02    7.72769694637643e-02
01.81    2.62307824202889e-01    1.55465354958618e-01    4.14586399001310e-02    9.25016570196226e-02
01.82    2.04785260195275e-01    1.91100724381724e-01    4.26540472426600e-02    1.13131611692065e-01
01.83    1.66590056485292e-01    2.30984951125263e-01    4.31929584598022e-02    1.36282285747995e-01
01.84    1.48697182007035e-01    2.69642988926898e-01    4.31176257872494e-02    1.58826271783177e-01
01.85    1.49886075940684e-01    3.01877243714008e-01    4.24658375381384e-02    1.77840140452845e-01
01.86    1.66943804220529e-01    3.23547237102107e-01    4.12669437903244e-02    1.91013817014217e-01
01.87    1.94993208787827e-01    3.32160548491856e-01    3.95436856348987e-02    1.96944360687821e-01
01.88    2.27982105398291e-01    3.27155865591621e-01    3.73188352512492e-02    1.95264027949834e-01
01.89    2.59381407942282e-01    3.09836612812145e-01    3.46253229026903e-02    1.86593092131622e-01
01.90    2.83081304268379e-01    2.82998605906979e-01    3.15174907495347e-02    1.72346798644341e-01
01.91    2.94366437471642e-01    2.50358988123065e-01    2.80800049768998e-02    1.54451328070064e-01
01.92    2.90751284892018e-01    2.15920259129137e-01    2.44308301430554e-02    1.35031066763990e-01
01.93    2.72431053496534e-01    1.83393421511023e-01    2.07161118633932e-02    1.16121786083880e-01
01.94    2.42185513917686e-01    1.55770504744400e-01    1.70974705724285e-02    9.94484400582731e-02
01.95    2.04739941031423e-01    1.35093148650563e-01    1.37349364537467e-02    8.62885052148072e-02
