# RiF 1e-20 (cm^2/W)
# 1w(eV) RpP                     RpS                     RsP                     RsS
00.01    1.23811379634202e-08    2.03352297633384e-09    2.68418450128515e-11    9.45038411051474e-10
00.02    1.65842041078159e-08    2.72526513473001e-09    3.59612462969033e-11    1.26651756324508e-09
00.03    2.56779590522333e-08    4.22259817343162e-09    5.56954638281608e-11    1.96238853076998e-09
00.04    4.10343873449650e-08    6.75289501382221e-09    8.90293073556858e-11    3.13832645919553e-09
00.05    6.47031633944876e-08    1.06563779092504e-08    1.40424621842439e-10    4.95245691482592e-09
00.06    9.94016923107457e-08    1.63851106766610e-08    2.15801811794696e-10    7.61488978426296e-09
00.07    1.48502694285705e-07    2.45017927051981e-08    3.22517033121788e-10    1.13871615590919e-08
00.08    2.16020930301688e-07    3.56786123986862e-08    4.69338552614763e-10    1.65817065688807e-08
00.09    3.06600985646960e-07    5.06964729512686e-08    6.66426395525247e-10    2.35615023384141e-08
00.10    4.25507650001144e-07    7.04448410439081e-08    9.25318658435007e-10    3.27400062164744e-08
00.11    5.78619547321509e-07    9.59223279808056e-08    1.25892585919096e-09    4.45814335441111e-08
00.12    7.72425709568931e-07    1.28237955535335e-07    1.68153247692298e-09    5.96013549028729e-08
00.13    1.01402414687863e-06    1.68612958425498e-07    2.20880366617903e-09    7.83675428717469e-08
00.14    1.31112131377953e-06    2.18382953999386e-07    2.85779453743818e-09    1.01500986807194e-07
00.15    1.67203158146383e-06    2.79000335393207e-07    3.64696035559133e-09    1.29677013232604e-07
00.16    2.10567624253259e-06    3.52036824134869e-07    4.59616673674907e-09    1.63626479713485e-07
00.17    2.62158191563400e-06    4.39186153344496e-07    5.72669985724745e-09    2.04137034810789e-07
00.18    3.22987847171304e-06    5.42266904619302e-07    7.06127705993842e-09    2.52054454738880e-07
00.19    3.94129668331155e-06    6.63225536344249e-07    8.62405787472930e-09    3.08284070700120e-07
00.20    4.76716573363359e-06    8.04139632362206e-07    1.04406554355518e-08    3.73792298542246e-07
00.21    5.71941065955812e-06    9.67221409050914e-07    1.25381480068094e-08    4.49608283859127e-07
00.22    6.81054967939029e-06    1.15482147922669e-06    1.49450907859867e-08    5.36825667567160e-07
00.23    8.05369132068865e-06    1.36943289056005e-06    1.76915280161450e-08    6.36604482511738e-07
00.24    9.46253137230025e-06    1.61369542470407e-06    2.08090061243240e-08    7.50173187600038e-07
00.25    1.10513497128697e-05    1.89040018438674e-06    2.43305878223001e-08    8.78830844483086e-07
00.26    1.28350071806761e-05    2.20249450627605e-06    2.82908668681797e-08    1.02394944471236e-06
00.27    1.48289425990853e-05    2.55308723163094e-06    3.27259832650937e-08    1.18697639201648e-06
00.28    1.70491699038558e-05    2.94545438029608e-06    3.76736389089274e-08    1.36943714520827e-06
00.29    1.95122752359877e-05    3.38304521764335e-06    4.31731141709739e-08    1.57293802838232e-06
00.30    2.22354137925035e-05    3.86948869672463e-06    4.92652856701901e-08    1.79916921893736e-06
00.31    2.52363063448395e-05    4.40860023862704e-06    5.59926454829060e-08    2.04990791979730e-06
00.32    2.85332354258054e-05    5.00438881538856e-06    6.33993209287830e-08    2.32702172852848e-06
00.33    3.21450412560381e-05    5.66106436949226e-06    7.15310947410236e-08    2.63247221627818e-06
00.34    3.60911175917226e-05    6.38304566504288e-06    8.04354244866718e-08    2.96831872227393e-06
00.35    4.03914076305477e-05    7.17496869075906e-06    9.01614612840218e-08    3.33672238379740e-06
00.36    4.50664002971885e-05    8.04169579357236e-06    1.00760068004683e-07    3.73995042412278e-06
00.37    5.01371271286682e-05    8.98832557154385e-06    1.12283837814654e-07    4.18038071595063e-06
00.38    5.56251595992947e-05    1.00202034616918e-05    1.24787115412466e-07    4.66050664881111e-06
00.39    6.15526064342972e-05    1.11429329139013e-05    1.38326022099584e-07    5.18294230677426e-06
00.40    6.79421102308645e-05    1.23623870179367e-05    1.52958484470939e-07    5.75042797197102e-06
00.41    7.48168428211564e-05    1.36847206082583e-05    1.68744264373037e-07    6.36583595395370e-06
00.42    8.22004996931710e-05    1.51163829984639e-05    1.85744985612650e-07    7.03217677758462e-06
00.43    9.01172942354694e-05    1.66641315245943e-05    2.04024156243245e-07    7.75260573990005e-06
00.44    9.85919531033972e-05    1.83350461381081e-05    2.23647185006310e-07    8.53042987514383e-06
00.45    1.07649713398898e-04    2.01365451610859e-05    2.44681396556752e-07    9.36911535525076e-06
00.46    1.17316321691908e-04    2.20764023251940e-05    2.67196048473832e-07    1.02722953792016e-05
00.47    1.27618033807233e-04    2.41627650394076e-05    2.91262351441457e-07    1.12437785940233e-05
00.48    1.38581613798945e-04    2.64041737645806e-05    3.16953494881089e-07    1.22875581030168e-05
00.49    1.50234330624700e-04    2.88095822934742e-05    3.44344674224470e-07    1.34078210795995e-05
00.50    1.62603952631370e-04    3.13883789230636e-05    3.73513122469476e-07    1.46089589799722e-05
00.51    1.75718740807449e-04    3.41504087226917e-05    4.04538141179361e-07    1.58955783602868e-05
00.52    1.89607443253234e-04    3.71059973791540e-05    4.37501128920287e-07    1.72725123541028e-05
00.53    2.04299292364048e-04    4.02659770862437e-05    4.72485602370670e-07    1.87448329194444e-05
00.54    2.19824005093960e-04    4.36417146032195e-05    5.09577208162638e-07    2.03178639978030e-05
00.55    2.36211785130390e-04    4.72451415228901e-05    5.48863723758674e-07    2.19971957221016e-05
00.56    2.53493324480433e-04    5.10887863089502e-05    5.90435065236566e-07    2.37886996929076e-05
00.57    2.71699803319797e-04    5.51858082174448e-05    6.34383295683325e-07    2.56985452117448e-05
00.58    2.90862886884590e-04    5.95500332924428e-05    6.80802653078511e-07    2.77332166294439e-05
00.59    3.11014721407416e-04    6.41959927246639e-05    7.29789590574186e-07    2.98995316620943e-05
00.60    3.32187931254351e-04    6.91389642373182e-05    7.81442803080697e-07    3.22046610442734e-05
00.61    3.54415619469712e-04    7.43950169457417e-05    8.35863243771254e-07    3.46561498886812e-05
00.62    3.77731372257133e-04    7.99810600564624e-05    8.93154118777991e-07    3.72619408905432e-05
00.63    4.02169265116289e-04    8.59148961522145e-05    9.53420856403512e-07    4.00303998164373e-05
00.64    4.27763868396815e-04    9.22152784763909e-05    1.01677106873003e-06    4.29703428154438e-05
00.65    4.54550250284525e-04    9.89019717488362e-05    1.08331450893961e-06    4.60910651488084e-05
00.66    4.82563978873269e-04    1.05995815478538e-04    1.15316304248497e-06    4.94023710441688e-05
00.67    5.11841125786438e-04    1.13518790166135e-04    1.22643060186411e-06    5.29146047408759e-05
00.68    5.42418273148425e-04    1.21494087827696e-04    1.30323317948581e-06    5.66386840497330e-05
00.69    5.74332523037923e-04    1.29946189888246e-04    1.38368884568744e-06    6.05861379688274e-05
00.70    6.07621507066434e-04    1.38900954418828e-04    1.46791781236701e-06    6.47691495510469e-05
00.71    6.42323395939991e-04    1.48385713949056e-04    1.55604247173710e-06    6.92006040452243e-05
00.72    6.78476912777238e-04    1.58429383260916e-04    1.64818731171577e-06    7.38941412666772e-05
00.73    7.16121350898913e-04    1.69062575175692e-04    1.74447864897118e-06    7.88642106762503e-05
00.74    7.55296597225271e-04    1.80317723977082e-04    1.84504418312448e-06    8.41261287874502e-05
00.75    7.96043154683894e-04    1.92229215649694e-04    1.95001254837698e-06    8.96961395830733e-05
00.76    8.38402159294217e-04    2.04833527723899e-04    2.05951301088161e-06    9.55914803200882e-05
00.77    8.82415388740232e-04    2.18169380847767e-04    2.17367542008944e-06    1.01830454763589e-04
00.78    9.28125270890278e-04    2.32277907339430e-04    2.29263028995905e-06    1.08432516073826e-04
00.79    9.75574902357628e-04    2.47202840063670e-04    2.41650880340675e-06    1.15418359739043e-04
00.80    1.02480808474045e-03    2.62990722230157e-04    2.54544260949272e-06    1.22810025821937e-04
00.81    1.07586937926319e-03    2.79691137086953e-04    2.67956331645947e-06    1.30631009053255e-04
00.82    1.12880416895196e-03    2.97356956261244e-04    2.81900178564497e-06    1.38906376796412e-04
00.83    1.18365872025444e-03    3.16044608537655e-04    2.96388738467862e-06    1.47662896911344e-04
00.84    1.24048023704962e-03    3.35814377491499e-04    3.11434721102903e-06    1.56929180499631e-04
00.85    1.29931691101399e-03    3.56730737862923e-04    3.27050532392527e-06    1.66735844671799e-04
00.86    1.36021797465806e-03    3.78862739453195e-04    3.43248184202618e-06    1.77115699145035e-04
00.87    1.42323376699535e-03    4.02284443277461e-04    3.60039170922244e-06    1.88103957588221e-04
00.88    1.48841581827350e-03    4.27075409972788e-04    3.77434299042003e-06    1.99738472884202e-04
00.89    1.55581695508578e-03    4.53321243077921e-04    3.95443470328268e-06    2.12059998012043e-04
00.90    1.62549142151473e-03    4.81114195767840e-04    4.14075419395105e-06    2.25112477370715e-04
00.91    1.69749501160863e-03    5.10553858720362e-04    4.33337420635727e-06    2.38943379172335e-04
00.92    1.77188520707084e-03    5.41747949721907e-04    4.53234952551012e-06    2.53604079069763e-04
00.93    1.84872132606383e-03    5.74813226953124e-04    4.73771326818637e-06    2.69150305459208e-04
00.94    1.92806469523912e-03    6.09876541861696e-04    4.94947291056047e-06    2.85642652836573e-04
00.95    2.00997885468111e-03    6.47076049926415e-04    5.16760613406294e-06    3.03147169659517e-04
00.96    2.09452979637444e-03    6.86562610412492e-04    5.39205651455244e-06    3.21736035268241e-04
00.97    2.18178622587235e-03    7.28501429242748e-04    5.62272845238618e-06    3.41488352414032e-04
00.98    2.27181985165942e-03    7.73074023737692e-04    5.85948022365138e-06    3.62491096679453e-04
00.99    2.36470574733374e-03    8.20480575170965e-04    6.10211369042606e-06    3.84840259698679e-04
01.00    2.46052287567200e-03    8.70942647430470e-04    6.35035960028019e-06    4.08642181786900e-04
01.01    2.55935485116867e-03    9.24706031575803e-04    6.60385907140112e-06    4.34014967037744e-04
01.02    2.66129094136435e-03    9.82043160820206e-04    6.86214379116099e-06    4.61089716650408e-04
01.03    2.76642712473421e-03    1.04325420917479e-03    7.12462098021564e-06    4.90011151793323e-04
01.04    2.87486681267336e-03    1.10866590354144e-03    7.39057218773679e-06    5.20937143975040e-04
01.05    2.98672067350006e-03    1.17862756568272e-03    7.65917702900859e-06    5.54036892741133e-04
01.06    3.10210498501515e-03    1.25350519554995e-03    7.92957108422185e-06    5.89488106139192e-04
01.07    3.22113819561413e-03    1.33367641964337e-03    8.20093974824088e-06    6.27474509705273e-04
01.08    3.34393590765372e-03    1.41953114328786e-03    8.47263641812996e-06    6.68185996138446e-04
01.09    3.47060526556530e-03    1.51148348724244e-03    8.74429766779026e-06    7.11824104631527e-04
01.10    3.60124046565217e-03    1.60999857728273e-03    9.01591746351183e-06    7.58614578128376e-04
01.11    3.73592153899542e-03    1.71563217402503e-03    9.28784641275559e-06    8.08826077964969e-04
01.12    3.87471836711033e-03    1.82907276385855e-03    9.56070728529520e-06    8.62790115539597e-04
01.13    4.01770092538264e-03    1.95116737410112e-03    9.83526403163632e-06    9.20913226007299e-04
01.14    4.16495514922974e-03    2.08290846976394e-03    1.01123364162025e-05    9.83670496449150e-04
01.15    4.31660185903549e-03    2.22536409086159e-03    1.03928930748801e-05    1.05157183069602e-03
01.16    4.47281439071886e-03    2.37954891718207e-03    1.06784558536104e-05    1.12509977711668e-03
01.17    4.63382931027959e-03    2.54625783503708e-03    1.09718867296342e-05    1.20462926071754e-03
01.18    4.79994426947057e-03    2.72590894373834e-03    1.12785039072609e-05    1.29035183988319e-03
01.19    4.97149787806711e-03    2.91845984639463e-03    1.16073119074683e-05    1.38223537039329e-03
01.20    5.14882869692093e-03    3.12346011514108e-03    1.19719822771322e-05    1.48004962028311e-03
01.21    5.33221434375639e-03    3.34027894003763e-03    1.23911514016825e-05    1.58347695200601e-03
01.22    5.52179735497794e-03    3.56850220269246e-03    1.28876626641532e-05    1.69230557564405e-03
01.23    5.71751141379224e-03    3.80843735611443e-03    1.34865900346773e-05    1.80667577451289e-03
01.24    5.91902842157753e-03    4.06161285484665e-03    1.42122059850935e-05    1.92732428581814e-03
01.25    6.12575110115924e-03    4.33112842485920e-03    1.50844134728820e-05    2.05575691174881e-03
01.26    6.33687411973062e-03    4.62171663096025e-03    1.61154332066226e-05    2.19428104136632e-03
01.27    6.55152638170069e-03    4.93942066979118e-03    1.73076170673955e-05    2.34585095201914e-03
01.28    6.76898770596096e-03    5.29087339566006e-03    1.86530873276618e-05    2.51371744563728e-03
01.29    6.98894733387593e-03    5.68226315888698e-03    2.01355075909356e-05    2.70092241173471e-03
01.30    7.21174637719180e-03    6.11817092702375e-03    2.17337958085616e-05    2.90972753876314e-03
01.31    7.43853005441367e-03    6.60053570453234e-03    2.34271798418752e-05    3.14110259998208e-03
01.32    7.67123666440583e-03    7.12803093586883e-03    2.52008671191344e-05    3.39441223449932e-03
01.33    7.91237305702042e-03    7.69610165914946e-03    2.70518764282643e-05    3.66742489085676e-03
01.34    8.16456871491902e-03    8.29782100309458e-03    2.89952459529100e-05    3.95672346271405e-03
01.35    8.42995367829799e-03    8.92558780674046e-03    3.10716976116436e-05    4.25853004149659e-03
01.36    8.70945574028620e-03    9.57352695824310e-03    3.33585688950997e-05    4.56987807294769e-03
01.37    9.00214560601961e-03    1.02402985135478e-02    3.59860181825777e-05    4.88998788433721e-03
01.38    9.30476568144501e-03    1.09318995470234e-02    3.91598337659363e-05    5.22164049451012e-03
01.39    9.61155756226220e-03    1.16639791927606e-02    4.31904795405208e-05    5.57231254530042e-03
01.40    9.91446270240515e-03    1.24631991029817e-02    4.85254607284956e-05    5.95484078058989e-03
01.41    1.02037236325537e-02    1.33672640678478e-02    5.57792129233489e-05    6.38743066099845e-03
01.42    1.04688731588033e-02    1.44234123754760e-02    6.57524032732381e-05    6.89290670633785e-03
01.43    1.07000746453295e-02    1.56853687528090e-02    7.94318835784271e-05    7.49720999001587e-03
01.44    1.08897673676470e-02    1.72089891662099e-02    9.79645601471330e-05    8.22726326627565e-03
01.45    1.10345670960364e-02    1.90470269552843e-02    1.22603395524835e-04    9.10842560597950e-03
01.46    1.11373577953553e-02    2.12435922760858e-02    1.54630663580697e-04    1.01618291229051e-02
01.47    1.12094705948954e-02    2.38289568999571e-02    1.95269750519518e-04    1.14019255013216e-02
01.48    1.12727761383110e-02    2.68154015802864e-02    2.45598628252283e-04    1.28345826317558e-02
01.49    1.13614329311284e-02    3.01948713538504e-02    3.06472367384281e-04    1.44560924712018e-02
01.50    1.15229758928921e-02    3.39393435093070e-02    3.78448300554809e-04    1.62535115346498e-02
01.51    1.18184435138768e-02    3.80050068637374e-02    4.61690304519473e-04    1.82068576005449e-02
01.52    1.23213522279769e-02    4.23414470230015e-02    5.55818047449632e-04    2.02937640662958e-02
01.53    1.31155005370732e-02    4.69067342898904e-02    6.59675450629195e-04    2.24970991617557e-02
01.54    1.42917162855949e-02    5.16882296048830e-02    7.71027763594924e-04    2.48155763234259e-02
01.55    1.59436241386687e-02    5.67267746287645e-02    8.86253832509346e-04    2.72763259956631e-02
01.56    1.81622914347687e-02    6.21388712083192e-02    1.00015901320219e-03    2.99467891554917e-02
01.57    2.10294138120957e-02    6.81283359034414e-02    1.10606447530195e-03    3.29415241229106e-02
01.58    2.46089102856231e-02    7.49772532884591e-02    1.19630150847884e-03    3.64183815053734e-02
01.59    2.89377446064121e-02    8.30076300653908e-02    1.26314498060223e-03    4.05590098477756e-02
01.60    3.40183794657531e-02    9.25110975379757e-02    1.30008529045006e-03    4.55315612263484e-02
01.61    3.98167000106282e-02    1.03653808055693e-01    1.30322718669782e-03    5.14386994250242e-02
01.62    4.62692028684807e-02    1.16374674874894e-01    1.27258944541559e-03    5.82603059370158e-02
01.63    5.33005921447049e-02    1.30302932849678e-01    1.21319255741297e-03    6.58052538864545e-02
01.64    6.08476373176264e-02    1.44721514015751e-01    1.13600085252659e-03    7.36877769996160e-02
01.65    6.88790595696344e-02    1.58594605435570e-01    1.05888214277403e-03    8.13401108193561e-02
01.66    7.73976729809250e-02    1.70663549439365e-01    1.00762285572421e-03    8.80651634731466e-02
01.67    8.64132370567258e-02    1.79600111366470e-01    1.01666678274060e-03    9.31236566875183e-02
01.68    9.58835245325363e-02    1.84194706021574e-01    1.12876393432553e-03    9.58423777360637e-02
01.69    1.05634824961326e-01    1.83551000645890e-01    1.39240016942493e-03    9.57255514365855e-02
01.70    1.15286642536875e-01    1.77256210187687e-01    1.85606023787650e-03    9.25500054409556e-02
01.71    1.24212892994496e-01    1.65497271042265e-01    2.55926935843351e-03    8.64263989485074e-02
01.72    1.31568813745881e-01    1.49098097643476e-01    3.52185393875199e-03    7.78134370223924e-02
01.73    1.36397369828263e-01    1.29464502270611e-01    4.73440665067136e-03    6.74799107134406e-02
01.74    1.37803730278627e-01    1.08440599517743e-01    6.15364402656313e-03    5.64194712626917e-02
01.75    1.35158891069063e-01    8.80983744320031e-02    7.70543715659181e-03    4.57322323172959e-02
01.76    1.28274901739625e-01    7.04932508020341e-02    9.29575819909099e-03    3.64921655668786e-02
01.77    1.17494916410264e-01    5.74191583400171e-02    1.08266455349552e-02    2.96185596189854e-02
01.78    1.03664896884652e-01    5.01898004607172e-02    1.22121863990188e-02    2.57656383444769e-02
01.79    8.79924843727564e-02    4.94659451986021e-02    1.33896575880835e-02    2.52405401592112e-02
01.80    7.18356850141236e-02    5.51469453174153e-02    1.43232644271294e-02    2.79584689173289e-02
01.81    5.64828729199411e-02    6.63469652800723e-02    1.50010243553789e-02    3.34437717680023e-02
01.82    4.29790744954014e-02    8.14753471556894e-02    1.54275864923155e-02    4.08834797355137e-02
01.83    3.20277002041868e-02    9.84289239875855e-02    1.56162751416085e-02    4.92327289519118e-02
01.84    2.39665879426215e-02    1.14880725428125e-01    1.55826920103170e-02    5.73600752974193e-02
01.85    1.87966394578630e-02    1.28621449438029e-01    1.53408140729334e-02    6.42091108674227e-02
01.86    1.62368664174485e-02    1.37889211956582e-01    1.49015514292266e-02    6.89462457550366e-02
01.87    1.57883469372351e-02    1.41619842169443e-01    1.42734052497286e-02    7.10664671873913e-02
01.88    1.68026763797819e-02    1.39567524586711e-01    1.34648606809284e-02    7.04390694040711e-02
01.89    1.85589706148114e-02    1.32278042698520e-01    1.24880326648908e-02    6.72900428549233e-02
01.90    2.03526079157459e-02    1.20932510314744e-01    1.13627120300695e-02    6.21318623940110e-02
01.91    2.15900100880678e-02    1.07106380318728e-01    1.01195626309893e-02    5.56605883963430e-02
01.92    2.18730304922904e-02    9.24999264157363e-02    8.80117693294277e-03    4.86428254160114e-02
01.93    2.10514234288933e-02    7.86926074452450e-02    7.46021870840512e-03    4.18122477417203e-02
01.94    1.92269748106518e-02    6.69598466153823e-02    6.15483858985007e-03    3.57896166390903e-02
01.95    1.67069382012528e-02    5.81726524742537e-02    4.94252895836699e-03    3.10337640135507e-02
