# RiF 1e-20 (cm^2/W)
# 1w(eV) RpP                     RpS                     RsP                     RsS
00.01    1.29163803640716e-07    2.43965020030173e-09    4.64529021519888e-11    6.78911406573436e-10
00.02    1.73021086512227e-07    3.26959216426772e-09    6.22369319837759e-11    9.09860833267340e-10
00.03    2.67915393352017e-07    5.06609360253558e-09    9.63941848430193e-11    1.40977205353847e-09
00.04    4.28173637035274e-07    8.10200811632816e-09    1.54092915282166e-10    2.25456192764693e-09
00.05    6.75203206674403e-07    1.27856308129512e-08    2.43059622186211e-10    3.55782773743844e-09
00.06    1.03739238605609e-06    1.96595117758082e-08    3.73547932182951e-10    5.47051246033202e-09
00.07    1.54998653847343e-06    2.93990399239817e-08    5.58300268304386e-10    8.18050429640237e-09
00.08    2.25495669192899e-06    4.28111040540395e-08    8.12508331855885e-10    1.19122570341621e-08
00.09    3.20088047196866e-06    6.08332071391328e-08    1.15377952597201e-09    1.69265355034424e-08
00.10    4.44285139313340e-06    8.45333324186671e-08    1.60211513310539e-09    2.35203701975608e-08
00.11    6.04242335425165e-06    1.15110695452096e-07    2.17990264253497e-09    3.20272573066414e-08
00.12    8.06758709017070e-06    1.53897322589559e-07    2.91192082234179e-09    4.28175879259560e-08
00.13    1.05927687698432e-05    2.02360283027071e-07    3.82535404942591e-09    5.62992566460305e-08
00.14    1.36988392525217e-05    2.62104377600354e-07    4.94981148270512e-09    7.29183910117955e-08
00.15    1.74731247831108e-05    3.34875102293899e-07    6.31734813788517e-09    9.31601570100171e-08
00.16    2.20094141209309e-05    4.22561820526609e-07    7.96248622492928e-09    1.17549617203474e-07
00.17    2.74079608421180e-05    5.27201092947394e-07    9.92223667388772e-09    1.46652636518244e-07
00.18    3.37754817941654e-05    6.50980193191811e-07    1.22361214095806e-08    1.81076842419767e-07
00.19    4.12251538273749e-05    7.96240861860210e-07    1.49461965248252e-08    2.21472649829474e-07
00.20    4.98766100888991e-05    9.65483328321216e-07    1.80970764774627e-08    2.68534359072183e-07
00.21    5.98559367074130e-05    1.16137066512614e-06    2.17359589458120e-08    3.23001336232041e-07
00.22    7.12956698009505e-05    1.38673345160128e-06    2.59126507244871e-08    3.85659280936394e-07
00.23    8.43347921016267e-05    1.64457477656429e-06    3.06795946582160e-08    4.57341588988982e-07
00.24    9.91187296789228e-05    1.93807552606461e-06    3.60918987093137e-08    5.38930815046352e-07
00.25    1.15799349202213e-04    2.27060002026538e-06    4.22073670022556e-08    6.31360238549959e-07
00.26    1.34534957127696e-04    2.64570207040389e-06    4.90865325028157e-08    7.35615537915725e-07
00.27    1.55490301420309e-04    3.06713152087964e-06    5.67926908852789e-08    8.52736574891680e-07
00.28    1.78836575435894e-04    3.53884138771635e-06    6.53919356355762e-08    9.83819294221209e-07
00.29    2.04751422220566e-04    4.06499554341242e-06    7.49531949135031e-08    1.13001774188730e-06
00.30    2.33418937438643e-04    4.64997687560905e-06    8.55482704184504e-08    1.29254621057139e-06
00.31    2.65029670042577e-04    5.29839579299576e-06    9.72518786358942e-08    1.47268151628216e-06
00.32    2.99780620408181e-04    6.01509892168256e-06    1.10141693217530e-07    1.67176541354616e-06
00.33    3.37875236610647e-04    6.80517803601137e-06    1.24298388446435e-07    1.89120715830672e-06
00.34    3.79523411559504e-04    7.67397946461999e-06    1.39805682510509e-07    2.13248622539678e-06
00.35    4.24941482510265e-04    8.62711424056908e-06    1.56750380972382e-07    2.39715519634800e-06
00.36    4.74352237777877e-04    9.67046945858286e-06    1.75222420879319e-07    2.68684283987633e-06
00.37    5.27984931773037e-04    1.08102208546221e-05    1.95314916395872e-07    3.00325739428310e-06
00.38    5.86075307610319e-04    1.20528463813426e-05    2.17124209138963e-07    3.34819007487477e-06
00.39    6.48865619574581e-04    1.34051404353563e-05    2.40749923912815e-07    3.72351879872800e-06
00.40    7.16604648082671e-04    1.48742283295657e-05    2.66295029216340e-07    4.13121213306034e-06
00.41    7.89547701885096e-04    1.64675810582684e-05    2.93865899484381e-07    4.57333346808460e-06
00.42    8.67956610985787e-04    1.81930306426585e-05    3.23572373017155e-07    5.05204543708449e-06
00.43    9.52099721897260e-04    2.00587865062454e-05    3.55527805158392e-07    5.56961460875184e-06
00.44    1.04225190816329e-03    2.20734533548281e-05    3.89849115082722e-07    6.12841648294618e-06
00.45    1.13869460345582e-03    2.42460508059252e-05    4.26656833057959e-07    6.73094081362406e-06
00.46    1.24171585387553e-03    2.65860349493377e-05    4.66075151293346e-07    7.37979728521910e-06
00.47    1.35161037560688e-03    2.91033216008063e-05    5.08231979286137e-07    8.07772155816443e-06
00.48    1.46867960143444e-03    3.18083108337003e-05    5.53259005787664e-07    8.82758171451825e-06
00.49    1.59323170547939e-03    3.47119121874955e-05    6.01291762718858e-07    9.63238512919008e-06
00.50    1.72558161389254e-03    3.78255705873514e-05    6.52469695882452e-07    1.04952857854742e-05
00.51    1.86605101107720e-03    4.11612933946144e-05    7.06936236336605e-07    1.14195920423488e-05
00.52    2.01496836440570e-03    4.47316796420570e-05    7.64838870190354e-07    1.24087748934590e-05
00.53    2.17266897216829e-03    4.85499522880158e-05    8.26329197851977e-07    1.34664767588466e-05
00.54    2.33949503172820e-03    5.26299933298794e-05    8.91562978612382e-07    1.45965208833138e-05
00.55    2.51579571725997e-03    5.69863814582626e-05    9.60700158445956e-07    1.58029214423488e-05
00.56    2.70192725649496e-03    6.16344314313198e-05    1.03390490840672e-06    1.70898944144118e-05
00.57    2.89825300413241e-03    6.65902355310555e-05    1.11134566905958e-06    1.84618691977542e-05
00.58    3.10514351017138e-03    7.18707078640614e-05    1.19319522716447e-06    1.99235010964385e-05
00.59    3.32297659171132e-03    7.74936322546649e-05    1.27963081265608e-06    2.14796845518722e-05
00.60    3.55213741351470e-03    8.34777142128834e-05    1.37083417412675e-06    2.31355672975936e-05
00.61    3.79301858424048e-03    8.98426369159577e-05    1.46699163292934e-06    2.48965656417950e-05
00.62    4.04602027948466e-03    9.66091216308262e-05    1.56829410167190e-06    2.67683810009551e-05
00.63    4.31155038604554e-03    1.03798993495236e-04    1.67493706647558e-06    2.87570180591881e-05
00.64    4.59002465619997e-03    1.11435252631579e-04    1.78712056114943e-06    3.08688042852750e-05
00.65    4.88186685752122e-03    1.19542150298399e-04    1.90504914080437e-06    3.31104105732255e-05
00.66    5.18750891282359e-03    1.28145268134361e-04    2.02893187414506e-06    3.54888727044595e-05
00.67    5.50739104493181e-03    1.37271600789077e-04    2.15898231080286e-06    3.80116136551429e-05
00.68    5.84196193533469e-03    1.46949643058409e-04    2.29541849315950e-06    4.06864675838117e-05
00.69    6.19167890078159e-03    1.57209485857782e-04    2.43846299456850e-06    4.35217065816129e-05
00.70    6.55700808889936e-03    1.68082923665183e-04    2.58834301510589e-06    4.65260711128378e-05
00.71    6.93842468829991e-03    1.79603575141990e-04    2.74529043865534e-06    4.97088041981516e-05
00.72    7.33641318957559e-03    1.91807015897212e-04    2.90954171855934e-06    5.30796887307952e-05
00.73    7.75146770747388e-03    2.04730920796446e-04    3.08133751480727e-06    5.66490869667749e-05
00.74    8.18409237268013e-03    2.18415216056427e-04    3.26092208778989e-06    6.04279819131167e-05
00.75    8.63480173385677e-03    2.32902240497056e-04    3.44854268931147e-06    6.44280209963481e-05
00.76    9.10412112017622e-03    2.48236920016785e-04    3.64444914441124e-06    6.86615634975385e-05
00.77    9.59258692585059e-03    2.64466957272603e-04    3.84889376605232e-06    7.31417330662470e-05
00.78    1.01007468740091e-02    2.81643042021229e-04    4.06213141471292e-06    7.78824768040119e-05
00.79    1.06291603463565e-02    2.99819085683736e-04    4.28441941366838e-06    8.28986312646162e-05
00.80    1.11783988616916e-02    3.19052480871174e-04    4.51601714398839e-06    8.82059950282291e-05
00.81    1.17490467088131e-02    3.39404384873565e-04    4.75718519318056e-06    9.38214069017530e-05
00.82    1.23417016407101e-02    3.60940026033846e-04    5.00818420824562e-06    9.97628297938086e-05
00.83    1.29569755838796e-02    3.83729035269939e-04    5.26927367397738e-06    1.06049441822917e-04
00.84    1.35954953312774e-02    4.07845813055654e-04    5.54071061973247e-06    1.12701738323119e-04
00.85    1.42579033023241e-02    4.33369945145310e-04    5.82274829138624e-06    1.19741648599412e-04
00.86    1.49448584335385e-02    4.60386677973149e-04    6.11563456818913e-06    1.27192670135190e-04
00.87    1.56570372429116e-02    4.88987460322608e-04    6.41960982440373e-06    1.35080020662520e-04
00.88    1.63951349886875e-02    5.19270549198474e-04    6.73490400502358e-06    1.43430806819099e-04
00.89    1.71598668377549e-02    5.51341681325412e-04    7.06173288902983e-06    1.52274210130942e-04
00.90    1.79519690042274e-02    5.85314820426117e-04    7.40029352079373e-06    1.61641693818927e-04
00.91    1.87721999303275e-02    6.21313002271561e-04    7.75075899542776e-06    1.71567238565223e-04
00.92    1.96213416468985e-02    6.59469305488303e-04    8.11327242046418e-06    1.82087615619100e-04
00.93    2.05002014884346e-02    6.99927978572541e-04    8.48794014253623e-06    1.93242705383862e-04
00.94    2.14096141840130e-02    7.42845743310217e-04    8.87482433671956e-06    2.05075865727047e-04
00.95    2.23504441891842e-02    7.88393297480215e-04    9.27393504977494e-06    2.17634353622033e-04
00.96    2.33235880575211e-02    8.36757052931015e-04    9.68522172164649e-06    2.30969809331851e-04
00.97    2.43299767288708e-02    8.88141171012446e-04    1.01085633356167e-05    2.45138821575109e-04
00.98    2.53705780980001e-02    9.42769986972400e-04    1.05437556191810e-05    2.60203604117493e-04
00.99    2.64464006737484e-02    1.00089089499340e-03    1.09904931652516e-05    2.76232811167158e-04
01.00    2.75584995459071e-02    1.06277766303857e-03    1.14483448452538e-05    2.93302489481720e-04
01.01    2.87079853762123e-02    1.12873387872861e-03    1.19167232768935e-05    3.11497089998310e-04
01.02    2.98960360558071e-02    1.19909585465693e-03    1.23948521210924e-05    3.30910348541937e-04
01.03    3.11239085514316e-02    1.27423392422343e-03    1.28817405947222e-05    3.51645726788121e-04
01.04    3.23929464541404e-02    1.35455096948865e-03    1.33761797816708e-05    3.73816067765610e-04
01.05    3.37045774783484e-02    1.44047761955148e-03    1.38767792098759e-05    3.97542280132481e-04
01.06    3.50602960011745e-02    1.53246512630824e-03    1.43820600163261e-05    4.22951307563151e-04
01.07    3.64616294649852e-02    1.63097935255001e-03    1.48906099701189e-05    4.50174334003450e-04
01.08    3.79100940157906e-02    1.73650172667546e-03    1.54012845464209e-05    4.79346882156368e-04
01.09    3.94071525114763e-02    1.84954390436567e-03    1.59134122460461e-05    5.10612731708597e-04
01.10    4.09541935821389e-02    1.97068043179850e-03    1.64269428768980e-05    5.44132908422397e-04
01.11    4.25525508602846e-02    2.10059696469253e-03    1.69424797893869e-05    5.80099083807951e-04
01.12    4.42035740680547e-02    2.24014148940421e-03    1.74611732417564e-05    6.18747842950581e-04
01.13    4.59087494218248e-02    2.39035589002201e-03    1.79845238286232e-05    6.60369386943137e-04
01.14    4.76698501438893e-02    2.55246048346761e-03    1.85142362364981e-05    7.05302867836832e-04
01.15    4.94890841536237e-02    2.72776993439615e-03    1.90523394366370e-05    7.53912182930424e-04
01.16    5.13692012571688e-02    2.91753773352912e-03    1.96018064982179e-05    8.06541394272101e-04
01.17    5.33135272308108e-02    3.12275530858964e-03    2.01678273049483e-05    8.63457192553789e-04
01.18    5.53259050793102e-02    3.34396253531029e-03    2.07596997558803e-05    9.24794619760261e-04
01.19    5.74105382228565e-02    3.58114690105596e-03    2.13930412087601e-05    9.90528175147206e-04
01.20    5.95717415125219e-02    3.83380747021068e-03    2.20917550457164e-05    1.06049017281811e-03
01.21    6.18136128759027e-02    4.10123092829028e-03    2.28890183538063e-05    1.13445001759801e-03
01.22    6.41396458850526e-02    4.38297278315932e-03    2.38265790962126e-05    1.21225257596889e-03
01.23    6.65523198034641e-02    4.67946908402980e-03    2.49519144710093e-05    1.29399440786128e-03
01.24    6.90527336865228e-02    4.99264131650139e-03    2.63132837707536e-05    1.38019858033700e-03
01.25    7.16403902392496e-02    5.32632004965466e-03    2.79533047892431e-05    1.47193799610168e-03
01.26    7.43132652257182e-02    5.68631771574971e-03    2.99022269241125e-05    1.57085835578970e-03
01.27    7.70682935030572e-02    6.08003475645799e-03    3.21723928278881e-05    1.67906708948515e-03
01.28    7.99023406875826e-02    6.51558056884244e-03    3.47553448663015e-05    1.79888231426911e-03
01.29    8.28136047990677e-02    7.00051300057878e-03    3.76226280650393e-05    1.93247098357808e-03
01.30    8.58032304394494e-02    7.54042085429722e-03    4.07306901441724e-05    2.08144016539445e-03
01.31    8.88767670789739e-02    8.13766273148311e-03    4.40296239596250e-05    2.24647122140831e-03
01.32    9.20450235286802e-02    8.79060763929770e-03    4.74751249470297e-05    2.42709620543373e-03
01.33    9.53239075831661e-02    9.49368338584157e-03    5.10431616043218e-05    2.62170475403379e-03
01.34    9.87330018149082e-02    1.02384279751761e-02    5.47475110833779e-05    2.82783804574897e-03
01.35    1.02292878671012e-01    1.10155721368209e-02    5.86612717132880e-05    3.04277831193523e-03
01.36    1.06021432953062e-01    1.18179848872325e-02    6.29442807921744e-05    3.26438576984450e-03
01.37    1.09929732569333e-01    1.26441230247556e-02    6.78784671611012e-05    3.49207962765950e-03
01.38    1.14018013240274e-01    1.35014752072280e-02    7.39120575652446e-05    3.72781633943140e-03
01.39    1.18272464625251e-01    1.44094127676667e-02    8.17109917953801e-05    3.97689563854847e-03
01.40    1.22663410250930e-01    1.54008729231193e-02    9.22121159932423e-05    4.24842916336335e-03
01.41    1.27145425087296e-01    1.65224124985326e-02    1.06668506457192e-04    4.55533985369101e-03
01.42    1.31659892624833e-01    1.78323705295757e-02    1.26674005118391e-04    4.91381980090418e-03
01.43    1.36140473242438e-01    1.93971374417351e-02    1.54153461146095e-04    5.34225144869596e-03
01.44    1.40521891177648e-01    2.12858031493899e-02    1.91308842367907e-04    5.85967920440602e-03
01.45    1.44752282535430e-01    2.35636994048806e-02    2.40519621648095e-04    6.48399075518800e-03
01.46    1.48809026612425e-01    2.62855256477071e-02    3.04206900861107e-04    7.23001751646494e-03
01.47    1.52717485802945e-01    2.94888495380561e-02    3.84679985163810e-04    8.10778814973013e-03
01.48    1.56571445371297e-01    3.31888390608790e-02    4.83985492084917e-04    9.12117731195318e-03
01.49    1.60553411664481e-01    3.73751840216571e-02    6.03767302226250e-04    1.02672054157184e-02
01.50    1.64952530648021e-01    4.20123576504830e-02    7.45120636430685e-04    1.15362865872996e-02
01.51    1.70177954441910e-01    4.70446253673634e-02    9.08394084499155e-04    1.29137921990041e-02
01.52    1.76766041484335e-01    5.24073333433349e-02    1.09287772426613e-03    1.43833500617398e-02
01.53    1.85380435225015e-01    5.80456313206155e-02    1.29633572483435e-03    1.59322297099105e-02
01.54    1.96803942698426e-01    6.39404246806598e-02    1.51441103286590e-03    1.75588221384308e-02
01.55    2.11919308182659e-01    7.01386668753297e-02    1.74003806666166e-03    1.92814768820534e-02
01.56    2.31672631899369e-01    7.67813021153890e-02    1.96310906566374e-03    2.11468293003969e-02
01.57    2.57010526099939e-01    8.41183071163886e-02    2.17069587577485e-03    2.32345173585055e-02
01.58    2.88784128193893e-01    9.24982269316655e-02    2.34807983412310e-03    2.56544083845780e-02
01.59    3.27623599682875e-01    1.02321534808692e-01    2.48066998331313e-03    2.85328415658218e-02
01.60    3.73805442047616e-01    1.13954435592763e-01    2.55664024061760e-03    3.19864611105963e-02
01.61    4.27154295085055e-01    1.27611739274519e-01    2.56990060406295e-03    3.60859008909250e-02
01.62    4.87027276402589e-01    1.43230929010848e-01    2.52296393154570e-03    4.08159747277966e-02
01.63    5.52409136438514e-01    1.60369202633341e-01    2.42943665120235e-03    4.60424475508457e-02
01.64    6.22098075463138e-01    1.78156047239508e-01    2.31614807843319e-03    5.14961653928392e-02
01.65    6.94901878146404e-01    1.95324188694393e-01    2.22508205430534e-03    5.67825069779191e-02
01.66    7.69725552446679e-01    2.10324632643643e-01    2.21503802364573e-03    6.14185014178945e-02
01.67    8.45447842890986e-01    2.21513178350493e-01    2.36226720316482e-03    6.48934672789313e-02
01.68    9.20564642641019e-01    2.27381769136836e-01    2.75842354337923e-03    6.67437343955934e-02
01.69    9.92697063226403e-01    2.26800156985355e-01    3.50358137692886e-03    6.66290311448407e-02
01.70    1.05816806866399e+00    2.19230167775862e-01    4.69253467366710e-03    6.43974427766515e-02
01.71    1.11188950913711e+00    2.04875183594782e-01    6.39463329451968e-03    6.01270878029338e-02
01.72    1.14774218081626e+00    1.84733018410094e-01    8.63080484988949e-03    5.41358176133022e-02
01.73    1.15948570881936e+00    1.60534093929617e-01    1.13548149983784e-02    4.69554801089396e-02
01.74    1.14204802155221e+00    1.34568175125524e-01    1.44470759011706e-02    3.92739409181791e-02
01.75    1.09288062067626e+00    1.09425326307639e-01    1.77266592951011e-02    3.18541780373832e-02
01.76    1.01299005056854e+00    8.76910075298313e-02    2.09807858656626e-02    2.54430899860741e-02
01.77    9.07309560055885e-01    7.16365881672774e-02    2.40036658315727e-02    2.06823338215990e-02
01.78    7.84254165356939e-01    6.29388116888512e-02    2.66321540538093e-02    1.80309096175052e-02
01.79    6.54547582837219e-01    6.24540900318271e-02    2.87669440037145e-02    1.77068105607804e-02
01.80    5.29623472914801e-01    7.00724630945904e-02    3.03743644505383e-02    1.96542941674604e-02
01.81    4.19997387754614e-01    8.46795771502981e-02    3.14716990116131e-02    2.35433303536794e-02
01.82    3.33948501477630e-01    1.04253708538573e-01    3.21042257041013e-02    2.88061292245149e-02
01.83    2.76685594234165e-01    1.26109344688032e-01    3.23228597787954e-02    3.47105049814733e-02
01.84    2.49992199565656e-01    1.47267799389638e-01    3.21683095818499e-02    4.04616924074646e-02
01.85    2.52238482592552e-01    1.64898142639941e-01    3.16636440621429e-02    4.53160003931532e-02
01.86    2.78648126018598e-01    1.76744097209900e-01    3.08143743889060e-02    4.86850510219859e-02
01.87    3.21787927317433e-01    1.81448203754134e-01    2.96142044302628e-02    5.02107051852372e-02
01.88    3.72332213664460e-01    1.78707604837311e-01    2.80547137683728e-02    4.97979160142106e-02
01.89    4.20167438753437e-01    1.69238459029909e-01    2.61372612097803e-02    4.76030639609425e-02
01.90    4.55810075314572e-01    1.54572719548214e-01    2.38848353845978e-02    4.39851942081617e-02
01.91    4.71945107177144e-01    1.36746090191985e-01    2.13508556059898e-02    3.94340363419766e-02
01.92    4.64741301182636e-01    1.17950532673835e-01    1.86219284626130e-02    3.44905752172692e-02
01.93    4.34562813099955e-01    1.00219236754484e-01    1.58128691381582e-02    2.96740166853739e-02
01.94    3.85825956514235e-01    8.51933093310870e-02    1.30546694424152e-02    2.54250066070218e-02
01.95    3.26008580549376e-01    7.39954413922112e-02    1.04785546183852e-02    2.20704942394344e-02
