# RiF 1e-20 (cm^2/W)
# 1w(eV) RpP                     RpS                     RsP                     RsS
00.01    1.29624436808027e-07    2.54964052085583e-09    4.63504201551824e-11    7.09519763264853e-10
00.02    1.73638380258522e-07    3.41699623803664e-09    6.20995724333217e-11    9.50880381683230e-10
00.03    2.68871778519115e-07    5.29448206560371e-09    9.61813217767168e-11    1.47332707245138e-09
00.04    4.29703007423286e-07    8.46724759552807e-09    1.53752439730709e-10    2.35619784546135e-09
00.05    6.77616450693053e-07    1.33619860523098e-08    2.42522236524891e-10    3.71820877047074e-09
00.06    1.04110267756618e-06    2.05456925273141e-08    3.72721487769022e-10    5.71710367567345e-09
00.07    1.55553433711465e-06    3.07241816831161e-08    5.57064154088625e-10    8.54923497735506e-09
00.08    2.26303446162383e-06    4.47406855397716e-08    8.10707908735403e-10    1.24491661264750e-08
00.09    3.21235719673851e-06    6.35749243789052e-08    1.15122058599144e-09    1.76894046222196e-08
00.10    4.45879702611258e-06    8.83429627760456e-08    1.59855835005847e-09    2.45803534705285e-08
00.11    6.06413335997320e-06    1.20297990962491e-07    2.17505797509953e-09    3.34705189575914e-08
00.12    8.09660722883257e-06    1.60831969314019e-07    2.90544183326099e-09    4.47469577783561e-08
00.13    1.06309202373631e-05    2.11477955254771e-07    3.81683211198360e-09    5.88359114577252e-08
00.14    1.37482442494001e-05    2.73912906787271e-07    4.93876985449469e-09    7.62035668950258e-08
00.15    1.75362325526024e-05    3.49960772357675e-07    6.30323588908705e-09    9.73568961519977e-08
00.16    2.20890274792826e-05    4.41595798071455e-07    7.94467201209735e-09    1.22844551028954e-07
00.17    2.75072632195817e-05    5.50945998633251e-07    9.90000235139466e-09    1.53257807196421e-07
00.18    3.38980648092896e-05    6.80296821852928e-07    1.22086554699091e-08    1.89231564952101e-07
00.19    4.13750454249025e-05    8.32095061388718e-07    1.49125873574872e-08    2.31445417437323e-07
00.20    5.00583032758650e-05    1.00895304841887e-06    1.80563054345051e-08    2.80624794908033e-07
00.21    6.00744189251951e-05    1.21365319003209e-06    2.16868932013055e-08    3.37542194885194e-07
00.22    7.15564529710780e-05    1.44915282939740e-06    2.58540359144555e-08    4.03018503303831e-07
00.23    8.46439433814004e-05    1.71858945890606e-06    3.06100472877494e-08    4.77924414389012e-07
00.24    9.94829029661418e-05    2.02528622985707e-06    3.60098983124581e-08    5.63181954715203e-07
00.25    1.16225817430216e-04    2.37275782560290e-06    4.21112480406213e-08    6.59766114783530e-07
00.26    1.35031645397143e-04    2.76471677275551e-06    4.89744759871504e-08    7.68706593475285e-07
00.27    1.56065821015469e-04    3.20508025835795e-06    5.66627157049278e-08    8.91089657358505e-07
00.28    1.79500258771290e-04    3.69797756912427e-06    6.52418895811276e-08    1.02806012017718e-06
00.29    2.05513358758909e-04    4.24775809995138e-06    7.47807453785996e-08    1.18082344578897e-06
00.30    2.34290010614928e-04    4.85899985517535e-06    8.53508947687224e-08    1.35064798338115e-06
00.31    2.66021595230558e-04    5.53651831040256e-06    9.70268542313282e-08    1.53886733912730e-06
00.32    3.00905983961139e-04    6.28537546990030e-06    1.09886087074441e-07    1.74688289167403e-06
00.33    3.39147536013802e-04    7.11088916693752e-06    1.24009046521636e-07    1.97616646141654e-06
00.34    3.80957096736340e-04    8.01864285746696e-06    1.39479218588975e-07    2.22826314039384e-06
00.35    4.26551998332437e-04    9.01449618984647e-06    1.56383165136010e-07    2.50479429977409e-06
00.36    4.76156067850344e-04    1.01045968354483e-05    1.74810567535163e-07    2.80746079855635e-06
00.37    5.29999643571060e-04    1.12953935949463e-05    1.94854271843821e-07    3.13804640283352e-06
00.38    5.88319599044902e-04    1.25936505424720e-05    2.16610338661656e-07    3.49842143942447e-06
00.39    6.51359367032578e-04    1.40064618451217e-05    2.40178098374382e-07    3.89054667503422e-06
00.40    7.19368955959761e-04    1.55412668302784e-05    2.65660211157765e-07    4.31647742677143e-06
00.41    7.92604953606853e-04    1.72058653514342e-05    2.93162728700702e-07    4.77836790517861e-06
00.42    8.71330521533474e-04    1.90084337565873e-05    3.22795151595290e-07    5.27847581451159e-06
00.43    9.55815391899755e-04    2.09575419319860e-05    3.54670481949897e-07    5.81916723729035e-06
00.44    1.04633587966530e-03    2.30621719163632e-05    3.88905269582988e-07    6.40292183546659e-06
00.45    1.14317491750200e-03    2.53317383397453e-05    4.25619658661551e-07    7.03233839252691e-06
00.46    1.24662211002996e-03    2.77761108716084e-05    4.64937437903258e-07    7.71014072259964e-06
00.47    1.35697379347814e-03    3.04056384296309e-05    5.06986095257110e-07    8.43918396294511e-06
00.48    1.47453308420332e-03    3.32311747120704e-05    5.51896879194518e-07    9.22246128125864e-06
00.49    1.59960990539372e-03    3.62641044301948e-05    5.99804861936894e-07    1.00631110256865e-05
00.50    1.73252099972416e-03    3.95163702747692e-05    6.50849009469075e-07    1.09644243366039e-05
00.51    1.87358993758568e-03    4.30005010584400e-05    7.05172252193778e-07    1.19298532288394e-05
00.52    2.02314714396776e-03    4.67296421348870e-05    7.62921553975302e-07    1.29630191860339e-05
00.53    2.18152994875540e-03    5.07175889652599e-05    8.24247970607457e-07    1.40677223097703e-05
00.54    2.34908265738504e-03    5.49788236559065e-05    8.89306693591646e-07    1.52479510980539e-05
00.55    2.52615663117322e-03    5.95285541310725e-05    9.58257077108522e-07    1.65078929576550e-05
00.56    2.71311036666040e-03    6.43827550764849e-05    1.03126267557340e-06    1.78519455098130e-05
00.57    2.91030957163187e-03    6.95582110433519e-05    1.10849128718846e-06    1.92847286697506e-05
00.58    3.11812723607996e-03    7.50725625116585e-05    1.19011502972490e-06    2.08110976308661e-05
00.59    3.33694370675299e-03    8.09443557041535e-05    1.27631043657910e-06    2.24361566272028e-05
00.60    3.56714677062766e-03    8.71930966482414e-05    1.36725853131117e-06    2.41652736579830e-05
00.61    3.80913175424793e-03    9.38393094157011e-05    1.46314488081374e-06    2.60040963860908e-05
00.62    4.06330165004824e-03    1.00904598962036e-04    1.56415961287921e-06    2.79585693326188e-05
00.63    4.33006726405451e-03    1.08411719530265e-04    1.67049739751041e-06    3.00349527604941e-05
00.64    4.60984737352189e-03    1.16384648551968e-04    1.78235742017525e-06    3.22398429561477e-05
00.65    4.90306888018712e-03    1.24848665788236e-04    1.89994335448037e-06    3.45801936787462e-05
00.66    5.21016695365013e-03    1.33830435671351e-04    2.02346335355333e-06    3.70633384595136e-05
00.67    5.53158517982121e-03    1.43358093191124e-04    2.15313001644374e-06    3.96970137858921e-05
00.68    5.86777572364880e-03    1.53461334521061e-04    2.28916039902371e-06    4.24893840503842e-05
00.69    6.21919951006646e-03    1.64171516857994e-04    2.43177605130371e-06    4.54490693800541e-05
00.70    6.58632642404297e-03    1.75521770162524e-04    2.58120311236213e-06    4.85851772985053e-05
00.71    6.96963552498165e-03    1.87547122512062e-04    2.73767236669586e-06    5.19073382551681e-05
00.72    7.36961531147581e-03    2.00284637846456e-04    2.90141912931304e-06    5.54257443465278e-05
00.73    7.78676404698161e-03    2.13773563457342e-04    3.07268288247051e-06    5.91511902457771e-05
00.74    8.22159015537764e-03    2.28055487612743e-04    3.25170666897292e-06    6.30951160916073e-05
00.75    8.67461262777976e-03    2.43174506920536e-04    3.43873648263019e-06    6.72696528068507e-05
00.76    9.14636139131864e-03    2.59177407827158e-04    3.63402084941819e-06    7.16876714408043e-05
00.77    9.63737760162858e-03    2.76113864393003e-04    3.83781074142365e-06    7.63628379255369e-05
00.78    1.01482139150783e-02    2.94036657605992e-04    4.05035963603639e-06    8.13096746820729e-05
00.79    1.06794348259546e-02    3.13001919524314e-04    4.27192343146753e-06    8.65436293206463e-05
00.80    1.12316171508485e-02    3.33069402717893e-04    4.50276004285440e-06    9.20811499937544e-05
00.81    1.18053506661018e-02    3.54302774046822e-04    4.74312855269043e-06    9.79397664347371e-05
00.82    1.24012388066307e-02    3.76769932126181e-04    4.99328806600240e-06    1.04138176863796e-04
00.83    1.30198993810595e-02    4.00543351130406e-04    5.25349649103976e-06    1.10696342468733e-04
00.84    1.36619652723984e-02    4.25700461896636e-04    5.52400924874962e-06    1.17635593339825e-04
00.85    1.43280852066726e-02    4.52324083792669e-04    5.80507794847588e-06    1.24978749769071e-04
00.86    1.50189246519286e-02    4.80502918380697e-04    6.09694881011258e-06    1.32750261629601e-04
00.87    1.57351668903027e-02    5.10332111570802e-04    6.39986053283229e-06    1.40976366211520e-04
00.88    1.64775141841705e-02    5.41913882272509e-04    6.71404137969237e-06    1.49685263227805e-04
00.89    1.72466889534512e-02    5.75358219615268e-04    7.03970545144812e-06    1.58907307922883e-04
00.90    1.80434349263932e-02    6.10783659762980e-04    7.37704813041400e-06    1.68675226053050e-04
00.91    1.88685183358087e-02    6.48318165051303e-04    7.72624088133909e-06    1.79024359167552e-04
00.92    1.97227292965933e-02    6.88100133970690e-04    8.08742523303811e-06    1.89992948746649e-04
00.93    2.06068835359449e-02    7.30279572410636e-04    8.46070603133565e-06    2.01622467317077e-04
00.94    2.15218244944339e-02    7.75019446176758e-04    8.84614406201749e-06    2.13958000676994e-04
00.95    2.24684256630598e-02    8.22497238684910e-04    9.24374813424246e-06    2.27048685004280e-04
00.96    2.34475929587169e-02    8.72906752609977e-04    9.65346664604544e-06    2.40948208767677e-04
00.97    2.44602670218288e-02    9.26460222023564e-04    1.00751777782672e-05    2.55715399193441e-04
00.98    2.55074258064325e-02    9.83390831647755e-04    1.05086767361436e-05    2.71414925336405e-04
00.99    2.65900882778188e-02    1.04395571795952e-03    1.09536579090900e-05    2.88118146301566e-04
01.00    2.77093204353594e-02    1.10843941785524e-03    1.14096903278596e-05    3.05904101840590e-04
01.01    2.88662443758514e-02    1.17715745143830e-03    1.18761871947650e-05    3.24860564308601e-04
01.02    3.00620500328522e-02    1.25045933630910e-03    1.23523732752178e-05    3.45084952749951e-04
01.03    3.12980071039292e-02    1.32872991863854e-03    1.28372595406032e-05    3.66684787055277e-04
01.04    3.25754726617882e-02    1.41238781387105e-03    1.33296396241110e-05    3.89777321939588e-04
01.05    3.38958886753886e-02    1.50188037335352e-03    1.38281264984931e-05    4.14488167540645e-04
01.06    3.52607645120401e-02    1.59767622854529e-03    1.43312455997563e-05    4.40949164432882e-04
01.07    3.66716432392611e-02    1.70025899483308e-03    1.48375895497650e-05    4.69296504532805e-04
01.08    3.81300571209375e-02    1.81012823664930e-03    1.53460185830608e-05    4.99670825319827e-04
01.09    3.96374854942246e-02    1.92781471538150e-03    1.58558648840624e-05    5.32221284286349e-04
01.10    4.11953337899373e-02    2.05391439097605e-03    1.63670797232292e-05    5.67114916192024e-04
01.11    4.28049528998007e-02    2.18913862210904e-03    1.68802647324990e-05    6.04550583268358e-04
01.12    4.44677106430188e-02    2.33436747971207e-03    1.73965649409954e-05    6.44773826035447e-04
01.13    4.61851128140496e-02    2.49068257077208e-03    1.79174728552317e-05    6.88085912293714e-04
01.14    4.79589545619900e-02    2.65935085777041e-03    1.84446838336966e-05    7.34838958321943e-04
01.15    4.97914690896319e-02    2.84173700342555e-03    1.89802182244508e-05    7.85410696843137e-04
01.16    5.16854358798955e-02    3.03914133031728e-03    1.95270420727545e-05    8.40158029528529e-04
01.17    5.36442157321491e-02    3.25259057225968e-03    2.00903377602493e-05    8.99357098454377e-04
01.18    5.56716927689478e-02    3.48264055074599e-03    2.06793882610093e-05    9.63146766580082e-04
01.19    5.77721180031690e-02    3.72927121174919e-03    2.13097758039182e-05    1.03149854327751e-03
01.20    5.99498601160184e-02    3.99195326726688e-03    2.20053307834108e-05    1.10423571202549e-03
01.21    6.22090758894421e-02    4.26993557774777e-03    2.27991005442605e-05    1.18111586457196e-03
01.22    6.45533201934707e-02    4.56274596036995e-03    2.37326327424999e-05    1.26197491204000e-03
01.23    6.69851318243309e-02    4.87082761943543e-03    2.48531329625075e-05    1.34691043810499e-03
01.24    6.95056618930339e-02    5.19616818434507e-03    2.62085373553000e-05    1.43646349254930e-03
01.25    7.21144512092735e-02    5.54273984394348e-03    2.78411332717297e-05    1.53174672348374e-03
01.26    7.48094938951152e-02    5.91657419018509e-03    2.97808984411704e-05    1.63446801647338e-03
01.27    7.75877202782542e-02    6.32535154746966e-03    3.20400395120701e-05    1.74681467883135e-03
01.28    8.04459701215918e-02    6.77748577573506e-03    3.46101670330895e-05    1.87119207363207e-03
01.29    8.33824020093656e-02    7.28081279256976e-03    3.74631343124127e-05    2.00984713565972e-03
01.30    8.63981217076293e-02    7.84111652449370e-03    4.05559171374906e-05    2.16444334301607e-03
01.31    8.94986597456763e-02    8.46081822357071e-03    4.38392637409934e-05    2.33568052983970e-03
01.32    9.26948474327497e-02    9.13818815516289e-03    4.72694858250654e-05    2.52306276581934e-03
01.33    9.60026763977094e-02    9.86739734051338e-03    5.08229047721377e-05    2.72490594121905e-03
01.34    9.94418884960337e-02    1.06396114900211e-02    5.45131383074851e-05    2.93864364531721e-03
01.35    1.03033295658988e-01    1.14451553472282e-02    5.84123839699983e-05    3.16143986440280e-03
01.36    1.06795105294987e-01    1.22765716461681e-02    6.26786737130465e-05    3.39105816889515e-03
01.37    1.10738750899431e-01    1.31322005842639e-02    6.75911648546823e-05    3.62687972645052e-03
01.38    1.14864853373834e-01    1.40197500433095e-02    7.35944014297347e-05    3.87091743838726e-03
01.39    1.19159961038111e-01    1.49592459242477e-02    8.13498891530909e-05    4.12865016233889e-03
01.40    1.23594671670812e-01    1.59847668402971e-02    9.17895148615624e-05    4.40950568031819e-03
01.41    1.28123681792055e-01    1.71444851184327e-02    1.06161103881663e-04    4.72685597949835e-03
01.42    1.32688267094834e-01    1.84987448672252e-02    1.26053128118947e-04    5.09745044604358e-03
01.43    1.37221669131719e-01    2.01161778389224e-02    1.53384994215229e-04    5.54029293178781e-03
01.44    1.41657801128973e-01    2.20681434659275e-02    1.90353025813582e-04    6.07505407831359e-03
01.45    1.45943524564751e-01    2.44220319602404e-02    2.39330521194209e-04    6.72018531418882e-03
01.46    1.50054433275455e-01    2.72341497794615e-02    3.02731361626337e-04    7.49095291484541e-03
01.47    1.54013591519043e-01    3.05430118405230e-02    3.82855941291312e-04    8.39763573082362e-03
01.48    1.57912045034378e-01    3.43639313217389e-02    4.81739613635639e-04    9.44413824298399e-03
01.49    1.61929293797550e-01    3.86858982093023e-02    6.01012125827184e-04    1.06272835280751e-02
01.50    1.66351510152180e-01    4.34719272422084e-02    7.41751546227311e-04    1.19370907834730e-02
01.51    1.71585327128197e-01    4.86643023390969e-02    9.04286752907054e-04    1.33584095051764e-02
01.52    1.78165535846993e-01    5.41962471624795e-02    1.08788680264833e-03    1.48743292745120e-02
01.53    1.86755630833386e-01    6.00111314796530e-02    1.29029557720996e-03    1.64717037093132e-02
01.54    1.98139962092175e-01    6.60889108995108e-02    1.50713902741531e-03    1.81487711697640e-02
01.55    2.13204388067986e-01    7.24767620361289e-02    1.73134033632261e-03    1.99240946300482e-02
01.56    2.32898932923132e-01    7.93170015086299e-02    1.95278785818575e-03    2.18448895626264e-02
01.57    2.58173233078543e-01    8.68614118598128e-02    2.15855742354199e-03    2.39915391020527e-02
01.58    2.89877605540670e-01    9.54589908802222e-02    2.33394353375787e-03    2.64742958641176e-02
01.59    3.28633326496900e-01    1.05506192199560e-01    2.46438425900610e-03    2.94185873067556e-02
01.60    3.74695024861657e-01    1.17356424424195e-01    2.53811686061370e-03    3.29375353058302e-02
01.61    4.27848523994180e-01    1.31198457356299e-01    2.54918454678165e-03    3.70942552328417e-02
01.62    4.87395200650253e-01    1.46928166107320e-01    2.50035454864998e-03    4.18612870648285e-02
01.63    5.52254773796371e-01    1.64048670975834e-01    2.40566225995108e-03    4.70882303593624e-02
01.64    6.21168535688834e-01    1.81634097096106e-01    2.29257018898569e-03    5.24891759504011e-02
01.65    6.92920561313856e-01    1.98379317507424e-01    2.20387645641952e-03    5.76577685809516e-02
01.66    7.66450109521436e-01    2.12735890207453e-01    2.19928462304598e-03    6.21106054231611e-02
01.67    8.40740655506049e-01    2.23111928921983e-01    2.35589348634706e-03    6.53519407393970e-02
01.68    9.14453452966379e-01    2.28100000856233e-01    2.76598723243569e-03    6.69474757607886e-02
01.69    9.85401871651421e-01    2.26695723165501e-01    3.52992511203386e-03    6.65939602648654e-02
01.70    1.05008056031116e+00    2.18476457222927e-01    4.74237037765225e-03    6.41736156449327e-02
01.71    1.10350918089809e+00    2.03717260237878e-01    6.47210305720582e-03    5.97858504829621e-02
01.72    1.13958982506488e+00    1.83426585125954e-01    8.73903613469101e-03    5.37518341988087e-02
01.73    1.15202132894477e+00    1.59289771855459e-01    1.14954771689053e-02    4.65902985697250e-02
01.74    1.13561423953531e+00    1.33518681984530e-01    1.46199752180902e-02    3.89663078168625e-02
01.75    1.08767917577714e+00    1.08621034311070e-01    1.79294638964548e-02    3.16187261695930e-02
01.76    1.00908629452022e+00    8.71174431854840e-02    2.12090024484208e-02    2.52754947167044e-02
01.77    9.04653689512646e-01    7.12414891245233e-02    2.42509545846350e-02    2.05672771376574e-02
01.78    7.82708760605390e-01    6.26574821643189e-02    2.68909708176916e-02    1.79495265020714e-02
01.79    6.53915373593370e-01    6.22270512366451e-02    2.90293877328281e-02    1.76418453335463e-02
01.80    5.29673200034963e-01    6.98547339009278e-02    3.06330436699003e-02    1.95927712655565e-02
01.81    4.20487324933164e-01    8.44438336193606e-02    3.17204415768937e-02    2.34774081939297e-02
01.82    3.34647095186623e-01    1.03989868971169e-01    3.23385240427338e-02    2.87329029176148e-02
01.83    2.77388184171865e-01    1.25822093048721e-01    3.25400248773477e-02    3.46312277507232e-02
01.84    2.50532874384097e-01    1.46972593038713e-01    3.23673646050465e-02    4.03806004439580e-02
01.85    2.52496861831341e-01    1.64616006798689e-01    3.18450136340940e-02    4.52388395343060e-02
01.86    2.78551736507507e-01    1.76495876680847e-01    3.09794328162945e-02    4.86174877244790e-02
01.87    3.21311332267576e-01    1.81249426436005e-01    2.97647536666081e-02    5.01569260097760e-02
01.88    3.71493871560877e-01    1.78565204709148e-01    2.81924750775567e-02    4.97597425203172e-02
01.89    4.19024516752731e-01    1.69150103729168e-01    2.62634737335277e-02    4.75797769151668e-02
01.90    4.54450621760604e-01    1.54528613239781e-01    2.40000441463546e-02    4.39740302429148e-02
01.91    4.70476744734757e-01    1.36732320547641e-01    2.14549315914790e-02    3.94311074027834e-02
01.92    4.63276330843069e-01    1.17952665506828e-01    1.87143012078068e-02    3.44918614174581e-02
01.93    4.33201160049849e-01    1.00225040422437e-01    1.58928897530444e-02    2.96761266053634e-02
01.94    3.84638992790597e-01    8.51940467931368e-02    1.31219854997765e-02    2.54255450889666e-02
01.95    3.25027558033851e-01    7.39857883238364e-02    1.05333844663036e-02    2.20680458221999e-02
