# RiF 1e-20 (cm^2/W)
# 1w(eV) RpP                     RpS                     RsP                     RsS
00.01    1.89945671177807e-05    1.95249335904482e-08    6.79265398172058e-09    2.03562447761699e-09
00.02    2.54527941149319e-05    2.61649026331510e-08    9.10331602229389e-09    2.72811565489034e-09
00.03    3.94307698370586e-05    4.05368032267891e-08    1.41049556662355e-08    4.22708629595691e-09
00.04    6.30480697944222e-05    6.48212122096922e-08    2.25571257421308e-08    6.76019268871531e-09
00.05    9.94751632537719e-05    1.02280321041330e-07    3.55963736486031e-08    1.06680933704634e-08
00.06    1.52922701339422e-04    1.57247489845911e-07    5.47328904606069e-08    1.64034547334329e-08
00.07    2.28628512423728e-04    2.35114697495188e-07    8.18464958653930e-08    2.45297623968306e-08
00.08    3.32844722012234e-04    3.42320221823232e-07    1.19182825858736e-07    3.57201980719008e-08
00.09    4.72827913369012e-04    4.86339607817504e-07    1.69350764589061e-07    5.07568945043905e-08
00.10    6.56834656293873e-04    6.75682198554738e-07    2.35321960629513e-07    7.05308208240748e-08
00.11    8.94123383360146e-04    9.19894428835054e-07    3.20432786291859e-07    9.60424065755212e-08
00.12    1.19496212015229e-03    1.22956927024617e-06    4.28388570287850e-07    1.28402856004607e-07
00.13    1.57064063451765e-03    1.61636066506411e-06    5.63269596845341e-07    1.68836002908556e-07
00.14    2.03348537747696e-03    2.09300170199773e-06    7.29538277002184e-07    2.18680530695409e-07
00.15    2.59687593195416e-03    2.67332450703074e-06    9.32047035594575e-07    2.79392423416227e-07
00.16    3.27526226946246e-03    3.37228193660406e-06    1.17604667631756e-06    3.52547578514293e-07
00.17    4.08418258139561e-03    4.20596965581452e-06    1.46719517347966e-06    4.39844565692235e-07
00.18    5.04028167063445e-03    5.19164894828538e-06    1.81156696911392e-06    5.43107554066630e-07
00.19    6.16133006192837e-03    6.34777097959637e-06    2.21566284830644e-06    6.64289437804682e-07
00.20    7.46624403919610e-03    7.69400245565467e-06    2.68642049915068e-06    8.05475185784505e-07
00.21    8.97510696682048e-03    9.25125419996742e-06    3.23122577194566e-06    9.68885443480017e-07
00.22    1.07091921604139e-02    1.10417110308727e-05    3.85792471228923e-06    1.15688039981154e-06
00.23    1.26909876411361e-02    1.30888635769341e-05    4.57483636747399e-06    1.37196394156900e-06
00.24    1.49442225268661e-02    1.54175393658081e-05    5.39076646763583e-06    1.61678810902272e-06
00.25    1.74938947986783e-02    1.80539353776921e-05    6.31502197661961e-06    1.89415786387611e-06
00.26    2.03662999036506e-02    2.10256541138278e-05    7.35742657005028e-06    2.20703618413688e-06
00.27    2.35890599160772e-02    2.43617452600371e-05    8.52833702303238e-06    2.55854949682807e-06
00.28    2.71911536080224e-02    2.80927568974257e-05    9.83866049865266e-06    2.95199345996419e-06
00.29    3.12029479048194e-02    3.22507938578088e-05    1.12998727836166e-05    3.39083911029471e-06
00.30    3.56562312357245e-02    3.68695796859159e-05    1.29240374200940e-05    3.87873939996581e-06
00.31    4.05842489986092e-02    4.19845164773884e-05    1.47238258439833e-05    4.41953613637573e-06
00.32    4.60217407189135e-02    4.76327349906026e-05    1.67125385636533e-05    5.01726735542997e-06
00.33    5.20049786160201e-02    5.38531352763877e-05    1.89041275007259e-05    5.67617515191780e-06
00.34    5.85718074266974e-02    6.06864261334594e-05    2.13132195522007e-05    6.40071398621987e-06
00.35    6.57616852435589e-02    6.81751721385336e-05    2.39551414947359e-05    7.19555950514404e-06
00.36    7.36157256833851e-02    7.63638649831574e-05    2.68459461393116e-05    8.06561792398602e-06
00.37    8.21767406890625e-02    8.52990187607066e-05    3.00024397921567e-05    9.01603600475041e-06
00.38    9.14892843816223e-02    9.50292787309911e-05    3.34422110784436e-05    1.00522116913899e-05
00.39    1.01599697974307e-01    1.05605530503798e-04    3.71836612428020e-05    1.11798054171980e-05
00.40    1.12556156502088e-01    1.17080992858958e-04    4.12460360306046e-05    1.24047521254862e-05
00.41    1.24408717968390e-01    1.29511294732394e-04    4.56494591603344e-05    1.37332740136287e-05
00.42    1.37209374671085e-01    1.42954543859195e-04    5.04149673151547e-05    1.51718940694557e-05
00.43    1.51012105917597e-01    1.57471401028104e-04    5.55645466002859e-05    1.67274504196983e-05
00.44    1.65872930556407e-01    1.73125173609631e-04    6.11211705174439e-05    1.84071115656833e-05
00.45    1.81849958817543e-01    1.89981936314517e-04    6.71088398845257e-05    2.02183925530098e-05
00.46    1.99003443648864e-01    2.08110684350407e-04    7.35526248028848e-05    2.21691721864918e-05
00.47    2.17395832325826e-01    2.27583509265297e-04    8.04787088111458e-05    2.42677113843063e-05
00.48    2.37091820549147e-01    2.48475779220465e-04    8.79144351905006e-05    2.65226728151101e-05
00.49    2.58158410391710e-01    2.70866296181913e-04    9.58883552199932e-05    2.89431418779541e-05
00.50    2.80664971757525e-01    2.94837428979735e-04    1.04430278508753e-04    3.15386490340521e-05
00.51    3.04683306276164e-01    3.20475234188573e-04    1.13571325431371e-04    3.43191934968985e-05
00.52    3.30287710186517e-01    3.47869599964218e-04    1.23343982051618e-04    3.72952683620435e-05
00.53    3.57555034307987e-01    3.77114439246787e-04    1.33782157269752e-04    4.04778873749973e-05
00.54    3.86564739923514e-01    4.08307917591800e-04    1.44921242431397e-04    4.38786136199254e-05
00.55    4.17398952042702e-01    4.41552691470927e-04    1.56798173447238e-04    4.75095904359724e-05
00.56    4.50142511969397e-01    4.76956128261195e-04    1.69451496302553e-04    5.13835746472647e-05
00.57    4.84883033098425e-01    5.14630513497004e-04    1.82921436159236e-04    5.55139719176862e-05
00.58    5.21710958249862e-01    5.54693278576600e-04    1.97249970706492e-04    5.99148745935069e-05
00.59    5.60719622993511e-01    5.97267277602623e-04    2.12480906998917e-04    6.46011017031237e-05
00.60    6.02005313096763e-01    6.42481108552636e-04    2.28659960683012e-04    6.95882418633660e-05
00.61    6.45667315126785e-01    6.90469451625294e-04    2.45834837026700e-04    7.48926998366861e-05
00.62    6.91807960688164e-01    7.41373424031443e-04    2.64055314035433e-04    8.05317470634138e-05
00.63    7.40532657061069e-01    7.95340950307238e-04    2.83373328098511e-04    8.65235771253112e-05
00.64    7.91949919236224e-01    8.52527178961280e-04    3.03843062860763e-04    9.28873652895898e-05
00.65    8.46171405524618e-01    9.13094948511167e-04    3.25521041533059e-04    9.96433312182801e-05
00.66    9.03311961270174e-01    9.77215259745797e-04    3.48466222616446e-04    1.06812804183163e-04
00.67    9.63489663787080e-01    1.04506774541315e-03    3.72740097835910e-04    1.14418290811454e-04
00.68    1.02682585027501e+00    1.11684112380757e-03    3.98406794460886e-04    1.22483548040946e-04
00.69    1.09344511613139e+00    1.19273370517520e-03    4.25533183030409e-04    1.31033664686225e-04
00.70    1.16347529243074e+00    1.27295397385530e-03    4.54188991328445e-04    1.40095154367248e-04
00.71    1.23704740245428e+00    1.35772126344641e-03    4.84446922269490e-04    1.49696060041666e-04
00.72    1.31429562353175e+00    1.44726647833754e-03    5.16382769289573e-04    1.59866068273219e-04
00.73    1.39535724994655e+00    1.54183280854213e-03    5.50075524775620e-04    1.70636629909506e-04
00.74    1.48037264716449e+00    1.64167647198604e-03    5.85607480979815e-04    1.82041086003801e-04
00.75    1.56948518895603e+00    1.74706751062793e-03    6.23064331059568e-04    1.94114799844182e-04
00.76    1.66284117468606e+00    1.85829073264723e-03    6.62535276335601e-04    2.06895299780716e-04
00.77    1.76058973664098e+00    1.97564679854278e-03    7.04113145120077e-04    2.20422436990267e-04
00.78    1.86288269445642e+00    2.09945344990344e-03    7.47894512109201e-04    2.34738563836632e-04
00.79    1.96987429523121e+00    2.23004686341857e-03    7.93979806851914e-04    2.49888734621961e-04
00.80    2.08172081499060e+00    2.36778310796196e-03    8.42473401989155e-04    2.65920927841428e-04
00.81    2.19858001802426e+00    2.51303968825413e-03    8.93483678190571e-04    2.82886286617960e-04
00.82    2.32061062037550e+00    2.66621717673625e-03    9.47123069072752e-04    3.00839376320113e-04
00.83    2.44797185262004e+00    2.82774092700102e-03    1.00350808773187e-03    3.19838463123659e-04
00.84    2.58082319183313e+00    2.99806291790180e-03    1.06275932236729e-03    3.39945823824756e-04
00.85    2.71932413473183e+00    3.17766385736449e-03    1.12500138474034e-03    3.61228099024448e-04
00.86    2.86363381967550e+00    3.36705562694691e-03    1.19036278981751e-03    3.83756698771413e-04
00.87    3.01391029502940e+00    3.56678418034741e-03    1.25897574637555e-03    4.07608262857265e-04
00.88    3.17030929592311e+00    3.77743283289496e-03    1.33097584196405e-03    4.32865173274795e-04
00.89    3.33298256891312e+00    3.99962588865286e-03    1.40650160380920e-03    4.59616120767027e-04
00.90    3.50207593008974e+00    4.23403261614954e-03    1.48569390358448e-03    4.87956734799417e-04
00.91    3.67772718149339e+00    4.48137164710339e-03    1.56869516539439e-03    5.17990300530229e-04
00.92    3.86006401308208e+00    4.74241597394297e-03    1.65564831847909e-03    5.49828586785443e-04
00.93    4.04920187187103e+00    5.01799886268219e-03    1.74669545256073e-03    5.83592810663246e-04
00.94    4.24524173902373e+00    5.30902089486426e-03    1.84197615581050e-03    6.19414754575994e-04
00.95    4.44826785376653e+00    5.61645843687831e-03    1.94162553756972e-03    6.57438048851519e-04
00.96    4.65834554254392e+00    5.94137379614149e-03    2.04577194878940e-03    6.97819647917818e-04
00.97    4.87551937191219e+00    6.28492722391254e-03    2.15453436556940e-03    7.40731553230438e-04
00.98    5.09981180313975e+00    6.64839082834469e-03    2.26801932969984e-03    7.86362870207751e-04
00.99    5.33122220098767e+00    7.03316391501486e-03    2.38631726046290e-03    8.34922279422403e-04
01.00    5.56972581609494e+00    7.44078860195093e-03    2.50949793044990e-03    8.86640917041026e-04
01.01    5.81527238906538e+00    7.87296262998832e-03    2.63760505991181e-03    9.41775435553354e-04
01.02    6.06778434152128e+00    8.33154438710849e-03    2.77065036249305e-03    1.00061067523908e-03
01.03    6.32715541519360e+00    8.81854315879745e-03    2.90860814336679e-03    1.06346101490590e-03
01.04    6.59325151611339e+00    9.33608831183289e-03    3.05141255959796e-03    1.13066935420640e-03
01.05    6.86591613842340e+00    9.88637668226048e-03    3.19896072973015e-03    1.20260315908814e-03
01.06    7.14498219799283e+00    1.04716090626204e-02    3.35112540821423e-03    1.27964833855667e-03
01.07    7.43029014902433e+00    1.10939432161237e-02    3.50778028659148e-03    1.36220382672876e-03
01.08    7.72170896751971e+00    1.17555051942177e-02    3.66883852609981e-03    1.45068188771968e-03
01.09    8.01915277088924e+00    1.24585037721953e-02    3.83430089391958e-03    1.54551998380942e-03
01.10    8.32258357033156e+00    1.32054726726584e-02    4.00430491262877e-03    1.64720800406867e-03
01.11    8.63199157408429e+00    1.39996181017570e-02    4.17916295766896e-03    1.75632886026574e-03
01.12    8.94734971148984e+00    1.48451826702283e-02    4.35937826582507e-03    1.87360172469819e-03
01.13    9.26854799234603e+00    1.57476741192499e-02    4.54563603201463e-03    1.99990841683839e-03
01.14    9.59532313141247e+00    1.67137837237590e-02    4.73878290702830e-03    2.13627929247945e-03
01.15    9.92720593041925e+00    1.77508647439486e-02    4.93982957742719e-03    2.28381991315268e-03
01.16    1.02635093174184e+01    1.88659677665304e-02    5.15003103319069e-03    2.44357594388663e-03
01.17    1.06033726692513e+01    2.00646121640740e-02    5.37110798194651e-03    2.61635873544388e-03
01.18    1.09458636835173e+01    2.13496550944479e-02    5.60566069151567e-03    2.80258071842768e-03
01.19    1.12901224189297e+01    2.27207250642849e-02    5.85778681452297e-03    3.00216768374412e-03
01.20    1.16355179685799e+01    2.41746523138944e-02    6.13384782416972e-03    3.21461428325864e-03
01.21    1.19817819318039e+01    2.57071265591012e-02    6.44324432724179e-03    3.43922426396985e-03
01.22    1.23290858042031e+01    2.73154743061570e-02    6.79897832406882e-03    3.67552999076176e-03
01.23    1.26780393895152e+01    2.90020565244236e-02    7.21772784376518e-03    3.92382693975529e-03
01.24    1.30295994409036e+01    3.07774576179412e-02    7.71916643022860e-03    4.18570406365930e-03
01.25    1.33848863785916e+01    3.26624840755852e-02    8.32435100381009e-03    4.46441813756709e-03
01.26    1.37449104227746e+01    3.46880864013097e-02    9.05318472123146e-03    4.76496372589511e-03
01.27    1.41102105897565e+01    3.68926826003615e-02    9.92121957099152e-03    5.09373649206152e-03
01.28    1.44804167778470e+01    3.93169319376786e-02    1.09363517206033e-02    5.45777165901586e-03
01.29    1.48537636022739e+01    4.19966630012461e-02    1.20962171793118e-02    5.86364595777440e-03
01.30    1.52266142984131e+01    4.49552609592991e-02    1.33872515050849e-02    6.31623698349022e-03
01.31    1.55930884388730e+01    4.81972020191800e-02    1.47863916359956e-02    6.81761237702289e-03
01.32    1.59449165152093e+01    5.17044905765964e-02    1.62662626691045e-02    7.36635034605467e-03
01.33    1.62716570981270e+01    5.54374486725368e-02    1.78044344885437e-02    7.95755963450610e-03
01.34    1.65614025967854e+01    5.93406544931449e-02    1.93969975229792e-02    8.58377090524130e-03
01.35    1.68020666829918e+01    6.33539301370871e-02    2.10763335747519e-02    9.23672553930668e-03
01.36    1.69832926283904e+01    6.74272905154069e-02    2.29325650798428e-02    9.90991590320004e-03
01.37    1.70989440223842e+01    7.15378706698982e-02    2.51377522095416e-02    1.06015633544064e-02
01.38    1.71500281419016e+01    7.57062190220358e-02    2.79714636822609e-02    1.13175880438291e-02
01.39    1.71477435233610e+01    8.00091039911436e-02    3.18458850288558e-02    1.20740555647479e-02
01.40    1.71161310162562e+01    8.45861848957577e-02    3.73282018813193e-02    1.28985983773768e-02
01.41    1.70935614013079e+01    8.96385421773097e-02    4.51577158636309e-02    1.38304111074569e-02
01.42    1.71320737779669e+01    9.54180810483809e-02    5.62552085324772e-02    1.49185995949335e-02
01.43    1.72934934602123e+01    1.02208117201199e-01    7.17226892325779e-02    1.62188980240479e-02
01.44    1.76414428209436e+01    1.10296860187709e-01    9.28330272213182e-02    1.77890177814462e-02
01.45    1.82289474219251e+01    1.19946869522458e-01    1.21010947548216e-01    1.96831103174783e-02
01.46    1.90824155216158e+01    1.31364643140197e-01    1.57808729159530e-01    2.19459769674479e-02
01.47    2.01843198308143e+01    1.44675176240333e-01    2.04880131542208e-01    2.46077304289437e-02
01.48    2.14587862394658e+01    1.59906493189234e-01    2.63952537229827e-01    2.76796327733375e-02
01.49    2.27661935515306e+01    1.76988866919019e-01    3.36788470130504e-01    3.11518693917252e-02
01.50    2.39143718760222e+01    1.95772789325964e-01    4.25114143172733e-01    3.49941372014214e-02
01.51    2.46945350183652e+01    2.16068791324756e-01    5.30479333477935e-01    3.91601371158116e-02
01.52    2.49491980525074e+01    2.37710647080890e-01    6.54009451741955e-01    4.35972304325659e-02
01.53    2.46766683334621e+01    2.60640665809215e-01    7.96029787307419e-01    4.82623359304724e-02
01.54    2.41721142595084e+01    2.85010683462406e-01    9.55592482544034e-01    5.31441397618598e-02
01.55    2.41985723402472e+01    3.11284284103264e-01    1.13001587621095e+00    5.82894385733008e-02
01.56    2.61724229346696e+01    3.40315569550864e-01    1.31463439552526e+00    6.38280021394936e-02
01.57    3.23378379153803e+01    3.73370515314750e-01    1.50302424799627e+00    6.99866165840222e-02
01.58    4.58972154951889e+01    4.12053800771488e-01    1.68798107934017e+00    7.70807221869199e-02
01.59    7.10671026771869e+01    4.58113050271871e-01    1.86345174781575e+00    8.54735664629772e-02
01.60    1.13051787664578e+02    5.13116382243542e-01    2.02746051396864e+00    9.54995711533615e-02
01.61    1.77977074368598e+02    5.78033865121803e-01    2.18586062214515e+00    1.07360029859044e-01
01.62    2.72897716684054e+02    6.52788404477485e-01    2.35654667206359e+00    1.21011941177285e-01
01.63    4.06047957313990e+02    7.35861956509011e-01    2.57360902897651e+00    1.36079126303230e-01
01.64    5.87480648258626e+02    8.24039313968131e-01    2.89076210165016e+00    1.51813771801600e-01
01.65    8.30071177488935e+02    9.12350694574100e-01    3.38315751257535e+00    1.67125515341587e-01
01.66    1.15053696266697e+03    9.94255008426335e-01    4.14634146079477e+00    1.80678929783349e-01
01.67    1.56973957719567e+03    1.06210150635944e+00    5.29067908758522e+00    1.91046179519996e-01
01.68    2.11131113315282e+03    1.10790702798653e+00    6.92933498643497e+00    1.96894475175325e-01
01.69    2.79783762714927e+03    1.12445273891262e+00    9.15847466504023e+00    1.97186273554321e-01
01.70    3.64458136827222e+03    1.10660708819015e+00    1.20304469001262e+01    1.91368346957603e-01
01.71    4.65189337106732e+03    1.05263787793547e+00    1.55244981886527e+01    1.79520675390199e-01
01.72    5.79858865122603e+03    9.65163314385161e-01    1.95239302502534e+01    1.62431570039910e-01
01.73    7.03900209451617e+03    8.51403597127680e-01    2.38109693776369e+01    1.41570107487753e-01
01.74    8.30575538230165e+03    7.22565159662306e-01    2.80881290273703e+01    1.18945605662928e-01
01.75    9.51850499202226e+03    5.92450198784565e-01    3.20265947829285e+01    9.68711513647812e-02
01.76    1.05967717881900e+04    4.75599054221221e-01    3.53308232299703e+01    7.76713153657125e-02
01.77    1.14733624676661e+04    3.85335994518281e-01    3.77997491404322e+01    6.33827515934982e-02
01.78    1.21046588186264e+04    3.32001157713261e-01    3.93640943408477e+01    5.54902244236290e-02
01.79    1.24752792722578e+04    3.21515855756645e-01    4.00876265907559e+01    5.47285898893402e-02
01.80    1.25966804664279e+04    3.54364433404009e-01    4.01338936337522e+01    6.09724451480945e-02
01.81    1.25011811732916e+04    4.25122633794319e-01    3.97120846772355e+01    7.32310800902767e-02
01.82    1.22338825739257e+04    5.22747049121875e-01    3.90207474162643e+01    8.97608174694819e-02
01.83    1.18448343541752e+04    6.31832747977115e-01    3.82050555598162e+01    1.08292687686530e-01
01.84    1.13829211463973e+04    7.34861090734107e-01    3.73354054551053e+01    1.26349947701481e-01
01.85    1.08919139543442e+04    8.15131273870856e-01    3.64070818211520e+01    1.41604818582279e-01
01.86    1.04084045433870e+04    8.59746938885222e-01    3.53558567455897e+01    1.52208413097358e-01
01.87    9.96105750745315e+03    8.61894683596183e-01    3.40831662335621e+01    1.57030571085978e-01
01.88    9.57065024731063e+03    8.21805136764037e-01    3.24853637172974e+01    1.55767695712240e-01
01.89    9.25051727415192e+03    7.46182246729714e-01    3.04825420113935e+01    1.48909050169667e-01
01.90    9.00713921731727e+03    6.46353124914567e-01    2.80426369516342e+01    1.37583929490129e-01
01.91    8.84071060052804e+03    5.35733301891103e-01    2.51964292974896e+01    1.23333767925770e-01
01.92    8.74564398161154e+03    4.27303171839610e-01    2.20398085863067e+01    1.07860106631840e-01
01.93    8.71115744249878e+03    3.31659696725372e-01    1.87220799523867e+01    9.27933562873011e-02
01.94    8.72229984850623e+03    2.55943950720445e-01    1.54228910127772e+01    7.95140791440824e-02
01.95    8.76187280893182e+03    2.03667074735085e-01    1.23240780186382e+01    6.90435509661673e-02
