# RiF 1e-20 (cm^2/W)
# 1w(eV) RpP                     RpS                     RsP                     RsS
00.01    1.29624704328213e-07    2.54950112210090e-09    4.63465738626216e-11    7.09488921689014e-10
00.02    1.73638795859714e-07    3.41678017414473e-09    6.20936124524111e-11    9.50832580795753e-10
00.03    2.68872542925698e-07    5.29408575850097e-09    9.61703935641027e-11    1.47323940128145e-09
00.04    4.29704435713811e-07    8.46650917684668e-09    1.53732084725985e-10    2.35603450338625e-09
00.05    6.77619052185834e-07    1.33606450899176e-08    2.42485285457008e-10    3.71791216406025e-09
00.06    1.04110726309335e-06    2.05433364783267e-08    3.72656591077318e-10    5.71658258416327e-09
00.07    1.55554216309976e-06    3.07201747520407e-08    5.56953832214768e-10    8.54834883385379e-09
00.08    2.26304742071188e-06    4.47340756599623e-08    8.10526006826560e-10    1.24477044718130e-08
00.09    3.21237806522290e-06    6.35643240424581e-08    1.15092901868246e-09    1.76870607913889e-08
00.10    4.45882977907089e-06    8.83263994073786e-08    1.59810302223812e-09    2.45766915667250e-08
00.11    6.06418356584504e-06    1.20272722465200e-07    2.17436376405965e-09    3.34649331564602e-08
00.12    8.09668253615763e-06    1.60794260329097e-07    2.90440651670561e-09    4.47386229872446e-08
00.13    1.06310309675033e-05    2.11422809556465e-07    3.81531912489638e-09    5.88237243325609e-08
00.14    1.37484041103051e-05    2.73833751114417e-07    4.93659975650335e-09    7.61860761927082e-08
00.15    1.75364594900551e-05    3.49849086842543e-07    6.30017642205110e-09    9.73322213683428e-08
00.16    2.20893446835902e-05    4.41440688269369e-07    7.94042662581573e-09    1.22810288241709e-07
00.17    2.75077003072844e-05    5.50733703988948e-07    9.89419707305861e-09    1.53210920998868e-07
00.18    3.38986592013357e-05    6.80010155251668e-07    1.22008239904607e-08    1.89168265325776e-07
00.19    4.13758439446580e-05    8.31712774227287e-07    1.49021542059003e-08    2.31361020371356e-07
00.20    5.00593639923470e-05    1.00844911540678e-06    1.80425671082899e-08    2.80513565528451e-07
00.21    6.00758132692424e-05    1.21299600767866e-06    2.16689971191370e-08    3.37397171807707e-07
00.22    7.15582681543831e-05    1.44830432187847e-06    2.58309570531648e-08    4.02831302870692e-07
00.23    8.46462851509724e-05    1.71750408470952e-06    3.05805623632367e-08    4.77685013392248e-07
00.24    9.94858987295856e-05    2.02390988231023e-06    3.59725573594654e-08    5.62878450146676e-07
00.25    1.16229619790083e-04    2.37102662003378e-06    4.20643432432281e-08    6.59384459086433e-07
00.26    1.35036436135941e-04    2.76255571266472e-06    4.89160076082375e-08    7.68230303700366e-07
00.27    1.56071815576242e-04    3.20240177258462e-06    5.65903549591223e-08    8.90499496553636e-07
00.28    1.79507711282022e-04    3.69467991154198e-06    6.51529382911692e-08    1.02733374925621e-06
00.29    2.05522567652838e-04    4.24372360281047e-06    7.46720922499379e-08    1.17993504404077e-06
00.30    2.34301324902533e-04    4.85409302674524e-06    8.52189681128278e-08    1.34956783568236e-06
00.31    2.66035421483515e-04    5.53058376710197e-06    9.68675709623697e-08    1.53756138782705e-06
00.32    3.00922794072615e-04    6.27823569259735e-06    1.09694797801283e-07    1.74531225100913e-06
00.33    3.39167875804909e-04    7.10234207051745e-06    1.23780476550969e-07    1.97428689220319e-06
00.34    3.80981595482391e-04    8.00845916199890e-06    1.39207404652317e-07    2.22602448261105e-06
00.35    4.26581379288541e-04    9.00241658093211e-06    1.56061387646359e-07    2.50213986051732e-06
00.36    4.76191159861307e-04    1.00903289003700e-05    1.74431278172520e-07    2.80432669267779e-06
00.37    5.30041393856910e-04    1.12786085205080e-05    1.94409016261768e-07    3.13436084344388e-06
00.38    5.88369087259026e-04    1.25739795596255e-05    2.16089674092701e-07    3.49410397523996e-06
00.39    6.51417820696723e-04    1.39834924048171e-05    2.39571505905374e-07    3.88550737141310e-06
00.40    7.19437767386919e-04    1.55145384942085e-05    2.64956002440892e-07    4.31061598709215e-06
00.41    7.92685698428846e-04    1.71748653802241e-05    2.92347946863918e-07    4.77157272901430e-06
00.42    8.71424978960146e-04    1.89725923767282e-05    3.21855466123181e-07    5.27062298883090e-06
00.43    9.55925566843016e-04    2.09162272612802e-05    3.53590077295063e-07    5.81011945666064e-06
00.44    1.04646402687085e-03    2.30146845260358e-05    3.87666727270043e-07    6.39252724697514e-06
00.45    1.14332356784186e-03    2.52773054299538e-05    4.24203832618894e-07    7.02042936087375e-06
00.46    1.24679409911878e-03    2.77138800354945e-05    4.63323322748179e-07    7.69653251051553e-06
00.47    1.35717229278876e-03    3.03346709797586e-05    5.05150687250994e-07    8.42367332179627e-06
00.48    1.47476163486436e-03    3.31504385414929e-05    5.49815029564938e-07    9.20482494630311e-06
00.49    1.59987245486019e-03    3.61724663786573e-05    5.97449122267817e-07    1.00431041100517e-05
00.50    1.73282194151864e-03    3.94125879682527e-05    6.48189468823451e-07    1.09417786176278e-05
00.51    1.87393415432262e-03    4.28832141878868e-05    7.02176365649305e-07    1.19042753200696e-05
00.52    2.02354005389624e-03    4.65973631370436e-05    7.59553962255396e-07    1.29341885877657e-05
00.53    2.18197755608164e-03    5.05686930659396e-05    8.20470310526378e-07    1.40352893305906e-05
00.54    2.34959160665634e-03    5.48115382336288e-05    8.85077399044419e-07    1.52115346392972e-05
00.55    2.52673426601680e-03    5.93409473553809e-05    9.53531170344406e-07    1.64670781518989e-05
00.56    2.71376479317066e-03    6.41727237728718e-05    1.02599154833538e-06    1.78062812037424e-05
00.57    2.91104972669667e-03    6.93234677313208e-05    1.10262247133678e-06    1.92337247411501e-05
00.58    3.11896296096438e-03    7.48106215586947e-05    1.18359195680771e-06    2.07542221284060e-05
00.59    3.33788582628396e-03    8.06525185346170e-05    1.26907218586168e-06    2.23728327215847e-05
00.60    3.56820717838209e-03    8.68684359409296e-05    1.35923956601233e-06    2.40948763918849e-05
00.61    3.81032350419125e-03    9.34786522184713e-05    1.45427477226383e-06    2.59259492090708e-05
00.62    4.06463905507234e-03    1.00504508644835e-04    1.55436275237926e-06    2.78719404059132e-05
00.63    4.33156600189053e-03    1.07968476487091e-04    1.65969269569974e-06    2.99390510143380e-05
00.64    4.61152460043577e-03    1.15894229558451e-04    1.77045799356850e-06    3.21338138818958e-05
00.65    4.90494335293226e-03    1.24306721917749e-04    1.88685619879478e-06    3.44631148381668e-05
00.66    5.21225916019405e-03    1.33232268674324e-04    2.00908900332385e-06    3.69342146937765e-05
00.67    5.53391747945971e-03    1.42698630234487e-04    2.13736219074756e-06    3.95547721059670e-05
00.68    5.87037249728657e-03    1.52735101174918e-04    2.27188563258512e-06    4.23328681868762e-05
00.69    6.22208732146702e-03    1.63372608190882e-04    2.41287331044300e-06    4.52770339647398e-05
00.70    6.58953419280534e-03    1.74643819781815e-04    2.56054339500778e-06    4.83962816439097e-05
00.71    6.97319471193541e-03    1.86583269364660e-04    2.71511828647465e-06    5.17001396960860e-05
00.72    7.37356011691173e-03    1.99227490573670e-04    2.87682448476136e-06    5.51986911055726e-05
00.73    7.79113162218569e-03    2.12615162094465e-04    3.04589221292422e-06    5.89026137870543e-05
00.74    8.22642082820311e-03    2.26787262419307e-04    3.22255479873154e-06    6.28232229269736e-05
00.75    8.67995014350819e-03    2.41787234135846e-04    3.40704805311945e-06    6.69725157186222e-05
00.76    9.15225317051226e-03    2.57661162125378e-04    3.59960983789561e-06    7.13632200778922e-05
00.77    9.64387501703145e-03    2.74457967792936e-04    3.80047996368067e-06    7.60088487237781e-05
00.78    1.01553725891015e-02    2.92229624515640e-04    4.00990023243523e-06    8.09237600445156e-05
00.79    1.06873149497111e-02    3.11031397534148e-04    4.22811433807912e-06    8.61232259838737e-05
00.80    1.12402838252410e-02    3.30922108711471e-04    4.45536745082198e-06    9.16235065002921e-05
00.81    1.18148742656048e-02    3.51964425178789e-04    4.69190536034338e-06    9.74419296330913e-05
00.82    1.24116953672187e-02    3.74225171218135e-04    4.93797332718949e-06    1.03596977358159e-04
00.83    1.30313710142276e-02    3.97775665988904e-04    5.19381486144699e-06    1.10108378928696e-04
00.84    1.36745406076775e-02    4.22692097947421e-04    5.45967043295425e-06    1.16997215556596e-04
00.85    1.43418598644714e-02    4.49055949265929e-04    5.73577615060389e-06    1.24286040309341e-04
00.86    1.50340017480917e-02    4.76954481136859e-04    6.02236219407582e-06    1.31999015910854e-04
00.87    1.57516575737716e-02    5.06481286565036e-04    6.31965070210513e-06    1.40162070810514e-04
00.88    1.64955382096805e-02    5.37736908630558e-04    6.62785288978736e-06    1.48803072237450e-04
00.89    1.72663752923377e-02    5.70829526246621e-04    6.94716536945088e-06    1.57952017168117e-04
00.90    1.80649224189802e-02    6.05875718278851e-04    7.27776565742270e-06    1.67641244948490e-04
00.91    1.88919563873470e-02    6.43001328418355e-04    7.61980705233188e-06    1.77905679925633e-04
00.92    1.97482786154941e-02    6.82342458884809e-04    7.97341271249484e-06    1.88783112557345e-04
00.93    2.06347169079736e-02    7.24046622886641e-04    8.33866902430251e-06    2.00314527018705e-04
00.94    2.15521275814655e-02    7.68274075486151e-04    8.71561836561398e-06    2.12544479366885e-04
00.95    2.25013978119060e-02    8.15199346521378e-04    9.10425136683086e-06    2.25521529989075e-04
00.96    2.34834480049186e-02    8.65013014076873e-04    9.50449871408667e-06    2.39298740176230e-04
00.97    2.44992340746316e-02    9.17923784511782e-04    9.91622168184149e-06    2.53934252434706e-04
00.98    2.55497500015127e-02    9.74160974665324e-04    1.03391998604545e-05    2.69491986324611e-04
00.99    2.66360314819028e-02    1.03397746987360e-03    1.07731139754583e-05    2.86042478117335e-04
01.00    2.77591618762132e-02    1.09765312302111e-03    1.12175221395365e-05    3.03663861443180e-04
01.01    2.89202811512044e-02    1.16549828326448e-03    1.16718301595212e-05    3.22442908521771e-04
01.02    3.01205974143117e-02    1.23785675781242e-03    1.21352594212537e-05    3.42475934326833e-04
01.03    3.13613984992436e-02    1.31510710314914e-03    1.26068213920204e-05    3.63869244351243e-04
01.04    3.26440590351831e-02    1.39766105210390e-03    1.30853130007506e-05    3.86738768873660e-04
01.05    3.39700371769140e-02    1.48595850208762e-03    1.35693512184756e-05    4.11208692418481e-04
01.06    3.53408560745652e-02    1.58046010893993e-03    1.40574633616567e-05    4.37409344265544e-04
01.07    3.67580690171330e-02    1.68164103279578e-03    1.45482389994773e-05    4.65475333292699e-04
01.08    3.82232139001298e-02    1.78999186940341e-03    1.50405285563840e-05    4.95545639703051e-04
01.09    3.97377705799757e-02    1.90603370144336e-03    1.55336476220255e-05    5.27767652640298e-04
01.10    4.13031402771439e-02    2.03035167377333e-03    1.60275258678975e-05    5.62306443944356e-04
01.11    4.29206664602254e-02    2.16364454646923e-03    1.65227405834154e-05    5.99358593090172e-04
01.12    4.45917087941252e-02    2.30677727853831e-03    1.70204096507949e-05    6.39166903075020e-04
01.13    4.63177668898846e-02    2.46081332297107e-03    1.75219895581582e-05    6.82029365567356e-04
01.14    4.81006332775943e-02    2.62699849543315e-03    1.80291155237822e-05    7.28294325437969e-04
01.15    4.99425409595426e-02    2.80667428922308e-03    1.85436984324109e-05    7.78335482742939e-04
01.16    5.18462663841473e-02    3.00111785569539e-03    1.90685136822903e-05    8.32505884086749e-04
01.17    5.38151547957499e-02    3.21133557927575e-03    1.96084410626306e-05    8.91078571847641e-04
01.18    5.58530495753572e-02    3.43786868282504e-03    2.01723298826533e-05    9.54190626013003e-04
01.19    5.79641238315328e-02    3.68069023777875e-03    2.07751994942551e-05    1.02181341439967e-03
01.20    6.01526256088666e-02    3.93927166043392e-03    2.14402140097841e-05    1.09377158213188e-03
01.21    6.24225559407842e-02    4.21286695141305e-03    2.21996930522043e-05    1.16982483265847e-03
01.22    6.47773056843266e-02    4.50100717357572e-03    2.30944338908554e-05    1.24981057137444e-03
01.23    6.72192902700986e-02    4.80412814799565e-03    2.41708785218477e-05    1.33382547751104e-03
01.24    6.97496461668580e-02    5.12419015264702e-03    2.54761440664883e-05    1.42240549797106e-03
01.25    7.23680850510577e-02    5.46511065720361e-03    2.70515444999742e-05    1.51665268334064e-03
01.26    7.50730247766116e-02    5.83283643546673e-03    2.89257985863522e-05    1.61825856078868e-03
01.27    7.78621066804289e-02    6.23493699798172e-03    3.11094622682540e-05    1.72938946306953e-03
01.28    8.07331462761941e-02    6.67970118747336e-03    3.35921035514910e-05    1.85242781324889e-03
01.29    8.36854454212656e-02    7.17484418321293e-03    3.63433270069482e-05    1.98959951671459e-03
01.30    8.67212443786341e-02    7.72605561311851e-03    3.93180658504294e-05    2.14255337023870e-03
01.31    8.98469583441312e-02    8.33571001851580e-03    4.24658320630604e-05    2.31198491544872e-03
01.32    9.30737825042518e-02    9.00209310287364e-03    4.57431448892031e-05    2.49740688571254e-03
01.33    9.64173031966575e-02    9.71945612297737e-03    4.91283825147501e-05    2.69715692070583e-03
01.34    9.98959245471216e-02    1.04790967198377e-02    5.26388841859189e-05    2.90870052196166e-03
01.35    1.03528171676189e-01    1.12714931381681e-02    5.63510837352923e-05    3.12923770379953e-03
01.36    1.07329194391214e-01    1.20893180166439e-02    6.04253608317994e-05    3.35656358256219e-03
01.37    1.11306995663945e-01    1.29309630033331e-02    6.51375919904904e-05    3.59007644326905e-03
01.38    1.15459005592902e-01    1.38040526504418e-02    7.09185561283166e-05    3.83178226962881e-03
01.39    1.19769615201069e-01    1.47283469488651e-02    7.84001138326389e-05    4.08712161940264e-03
01.40    1.24209217812310e-01    1.57374469925644e-02    8.84635996250220e-05    4.36544932381404e-03
01.41    1.28735235913655e-01    1.68788344292366e-02    1.02281855455851e-04    4.68003193558612e-03
01.42    1.33295567056398e-01    1.82119809363113e-02    1.21343091341969e-04    5.04748910545776e-03
01.43    1.37834851746431e-01    1.98045293132709e-02    1.47443963002671e-04    5.48668442895985e-03
01.44    1.42303892709263e-01    2.17268281289608e-02    1.82642449544147e-04    6.01715569274693e-03
01.45    1.46672363390798e-01    2.40453492717084e-02    2.29168661123268e-04    6.65724863399657e-03
01.46    1.50944578725456e-01    2.68156943571331e-02    2.89301991687248e-04    7.42216990367793e-03
01.47    1.55177555873491e-01    3.00759993298312e-02    3.65231719063667e-04    8.32220039908500e-03
01.48    1.59499940140291e-01    3.38416143202528e-02    4.58919496025269e-04    9.36131930098122e-03
01.49    1.64129798577288e-01    3.81020424781091e-02    5.71971162244727e-04    1.05365046028682e-02
01.50    1.69389067838696e-01    4.28213252968230e-02    7.05501805597003e-04    1.18380206382800e-02
01.51    1.75712819530305e-01    4.79433317528261e-02    8.59950345935110e-04    1.32510775512105e-02
01.52    1.83652456232960e-01    5.34035417138006e-02    1.03478530626405e-03    1.47593031595827e-02
01.53    1.93872956949470e-01    5.91485218892107e-02    1.22806277670587e-03    1.63503942760565e-02
01.54    2.07144300973574e-01    6.51628845125428e-02    1.43586302489262e-03    1.80239570310855e-02
01.55    2.24325210691979e-01    7.15007673330685e-02    1.65173407530152e-03    1.98007756826806e-02
01.56    2.46333590006822e-01    7.83150091905937e-02    1.86637223811880e-03    2.17315910725399e-02
01.57    2.74094751821675e-01    8.58732669528566e-02    2.06781761008635e-03    2.39022014609903e-02
01.58    3.08459717721154e-01    9.45481737264002e-02    2.24238771157362e-03    2.64308762530985e-02
01.59    3.50095120156404e-01    1.04770399531140e-01    2.37640056738703e-03    2.94543991822114e-02
01.60    3.99362855037934e-01    1.16940446615441e-01    2.45850033242420e-03    3.31010439933026e-02
01.61    4.56224137864122e-01    1.31306677031261e-01    2.48220761758971e-03    3.74524082737260e-02
01.62    5.20206706029161e-01    1.47830624496074e-01    2.44829934754395e-03    4.25005012538564e-02
01.63    5.90455029945518e-01    1.66071346166207e-01    2.36682923536683e-03    4.81102771136457e-02
01.64    6.65842213813245e-01    1.85123703721438e-01    2.25891406028642e-03    5.39992448242442e-02
01.65    7.45076259048643e-01    2.03638714473859e-01    2.15856234635347e-03    5.97438391372061e-02
01.66    8.26711153239655e-01    2.19938681461972e-01    2.11455889312969e-03    6.48170492227919e-02
01.67    9.08997983365094e-01    2.32219737463492e-01    2.19169944399759e-03    6.86546792568625e-02
01.68    9.89583525979618e-01    2.38814612066524e-01    2.46974941641713e-03    7.07404742454522e-02
01.69    1.06515700940368e+00    2.38472861365097e-01    3.03793104412515e-03    7.06950024424608e-02
01.70    1.13121790144772e+00    2.30607414133177e-01    3.98319904013494e-03    6.83509592193712e-02
01.71    1.18215151599138e+00    2.15457686814093e-01    5.37246603553145e-03    6.37991887332592e-02
01.72    1.21173921705995e+00    1.94132620817134e-01    7.23200739986176e-03    5.73952410704446e-02
01.73    1.21410625296254e+00    1.68520728492368e-01    9.53028654931586e-03    4.97246147388278e-02
01.74    1.18495507681598e+00    1.41082358719922e-01    1.21715327068480e-02    4.15335835414921e-02
01.75    1.12279405387858e+00    1.14561872884889e-01    1.50050983444472e-02    3.36386794116171e-02
01.76    1.02980671635320e+00    9.16660271369366e-02    1.78501109080826e-02    2.68295288740576e-02
01.77    9.12058963945471e-01    7.47490815991252e-02    2.05285435695825e-02    2.17772619600884e-02
01.78    7.78913964748175e-01    6.55330827422590e-02    2.28959714519980e-02    1.89567938871181e-02
01.79    6.41761941488458e-01    6.48841749858909e-02    2.48602641479983e-02    1.85888762571731e-02
01.80    5.12377331175888e-01    7.26677894147637e-02    2.63838285961545e-02    2.06079179757468e-02
01.81    4.01299191190457e-01    8.77123132546036e-02    2.74717532608703e-02    2.46624795798508e-02
01.82    3.16562317490628e-01    1.07910874004203e-01    2.81528066968724e-02    3.01540169561457e-02
01.83    2.62934175000754e-01    1.30474435266900e-01    2.84609337587377e-02    3.63139610405233e-02
01.84    2.41632145068444e-01    1.52316148859229e-01    2.84223968064774e-02    4.23103992389703e-02
01.85    2.50394220089616e-01    1.70507616591212e-01    2.80502333674515e-02    4.73668127124422e-02
01.86    2.83787129480597e-01    1.82719176914330e-01    2.73451917838102e-02    5.08705086555569e-02
01.87    3.33725445206889e-01    1.87552560750306e-01    2.63013674810797e-02    5.24500104342606e-02
01.88    3.90265837869761e-01    1.84698922192085e-01    2.49147919781108e-02    5.20083544496859e-02
01.89    4.42753624104994e-01    1.74899720364050e-01    2.31932983026103e-02    4.97101086488096e-02
01.90    4.81299039444594e-01    1.59735906779066e-01    2.11656719808683e-02    4.59301395850204e-02
01.91    4.98382270899965e-01    1.41306318793745e-01    1.88877030294348e-02    4.11786719296270e-02
01.92    4.90222845487714e-01    1.21870434391547e-01    1.64429460349682e-02    3.60189249011871e-02
01.93    4.57507480115774e-01    1.03524675220022e-01    1.39371723482620e-02    3.09914866984350e-02
01.94    4.05207241835659e-01    8.79624227314969e-02    1.14874224328412e-02    2.65554715108814e-02
01.95    3.41491972538372e-01    7.63436957841407e-02    9.20843686467279e-03    2.30519896193034e-02
