# RiF 1e-20 (cm^2/W)
# 1w(eV) RpP                     RpS                     RsP                     RsS
00.01    1.29635224316861e-07    2.54978549650679e-09    4.63484888547704e-11    7.09560106428448e-10
00.02    1.73655099448698e-07    3.41722108928031e-09    6.20965809962091e-11    9.50942951463066e-10
00.03    2.68902440453303e-07    5.29489476485413e-09    9.61758385343257e-11    1.47344191328624e-09
00.04    4.29760124977724e-07    8.46801699056029e-09    1.53742228487182e-10    2.35641193974428e-09
00.05    6.77720143921397e-07    1.33633839797935e-08    2.42503701131534e-10    3.71859775542129e-09
00.06    1.04128479644090e-06    2.05481498702396e-08    3.72688934135736e-10    5.71778743877990e-09
00.07    1.55584392986608e-06    3.07283629411035e-08    5.57008810409206e-10    8.55039840066662e-09
00.08    2.26354491139881e-06    4.47475864628868e-08    8.10616645420275e-10    1.24510862449824e-08
00.09    3.21317534569978e-06    6.35859972390040e-08    1.15107427711420e-09    1.76924854674039e-08
00.10    4.46007460478364e-06    8.83602739160143e-08    1.59832981797310e-09    2.45851698884786e-08
00.11    6.06608104040887e-06    1.20324415376173e-07    2.17470945929461e-09    3.34778707211715e-08
00.12    8.09951162237862e-06    1.60871427152441e-07    2.90492192360605e-09    4.47579353523863e-08
00.13    1.06351641607894e-05    2.11535695328336e-07    3.81607208541480e-09    5.88519748234460e-08
00.14    1.37543305866416e-05    2.73995842335740e-07    4.93767935290515e-09    7.62266388932257e-08
00.15    1.75448120430685e-05    3.50077874562672e-07    6.30169787481978e-09    9.73894718640499e-08
00.16    2.21009307678665e-05    4.41758553046370e-07    7.94253693589735e-09    1.22889824781190e-07
00.17    2.75235375083366e-05    5.51168933872587e-07    9.89708146601916e-09    1.53319818846553e-07
00.18    3.39200154560202e-05    6.80598108426586e-07    1.22047132206943e-08    1.89315367197682e-07
00.19    4.14042828401783e-05    8.32497198505129e-07    1.49073327792125e-08    2.31557265975451e-07
00.20    5.00967954758965e-05    1.00948363732086e-06    1.80493824815733e-08    2.80772363371913e-07
00.21    6.01245501050444e-05    1.21434580461160e-06    2.16778699360483e-08    3.37734816592230e-07
00.22    7.16210884696940e-05    1.45004799128772e-06    2.58423924756932e-08    4.03267441964993e-07
00.23    8.47265014170117e-05    1.71973572530604e-06    3.05951625592385e-08    4.78243166058428e-07
00.24    9.95874335301642e-05    2.02674140276993e-06    3.59910352075893e-08    5.63586583397825e-07
00.25    1.16357088737005e-04    2.37459029178079e-06    4.20875373169501e-08    6.60275624266611e-07
00.26    1.35195238298491e-04    2.76700698428628e-06    4.89448985005542e-08    7.69343338113542e-07
00.27    1.56268231799399e-04    3.20792236449211e-06    5.66260830100910e-08    8.91879794714912e-07
00.28    1.79749010775371e-04    3.70148121075990e-06    6.51968227814936e-08    1.02903410861150e-06
00.29    2.05817123237762e-04    4.25205037885373e-06    7.47256521252816e-08    1.18201659028787e-06
00.30    2.34658737311084e-04    4.86422749072917e-06    8.52839443047473e-08    1.35210103314898e-06
00.31    2.66466653110622e-04    5.54284999742571e-06    9.69459503728575e-08    1.54062714069260e-06
00.32    3.01440312589019e-04    6.29300445169637e-06    1.09788839016492e-07    1.74900310152136e-06
00.33    3.39785808048894e-04    7.12003603881896e-06    1.23892737349875e-07    1.97870832243926e-06
00.34    3.81715892063362e-04    8.02955861736995e-06    1.39340771374017e-07    2.23129632675801e-06
00.35    4.27449990349650e-04    9.02746555407376e-06    1.56219106479534e-07    2.50839783512552e-06
00.36    4.77214222475277e-04    1.01199418396443e-05    1.74616988432291e-07    2.81172405288806e-06
00.37    5.31241431541698e-04    1.13134775017075e-05    1.94626785720951e-07    3.14307017370473e-06
00.38    5.89771222114167e-04    1.26148820781370e-05    2.16344036443691e-07    3.50431912367469e-06
00.39    6.53049998651685e-04    1.40312997894390e-05    2.39867500430812e-07    3.89744553754387e-06
00.40    7.21330997049677e-04    1.55702249836096e-05    2.65299215971589e-07    4.32451997331090e-06
00.41    7.94874304025303e-04    1.72395179060875e-05    2.92744558095974e-07    4.78771336688562e-06
00.42    8.73946867883185e-04    1.90474211012904e-05    3.22312292349961e-07    5.28930175214916e-06
00.43    9.58822512384422e-04    2.10025769214818e-05    3.54114623610542e-07    5.83167127407219e-06
00.44    1.04978196676243e-03    2.31140466414318e-05    3.88267238289204e-07    6.41732352794133e-06
00.45    1.14711291927452e-03    2.53913314361392e-05    4.24889346776310e-07    7.04888124976165e-06
00.46    1.25111009091517e-03    2.78443954097940e-05    4.64103729241884e-07    7.72909438472042e-06
00.47    1.36207531538504e-03    3.04836904296485e-05    5.06036785698794e-07    8.46084655095567e-06
00.48    1.48031760872213e-03    3.33201823300820e-05    5.50818592458344e-07    9.24716193102306e-06
00.49    1.60615321792648e-03    3.63653778650007e-05    5.98582960291490e-07    1.00912126200099e-05
00.50    1.73990565641631e-03    3.96313524468838e-05    6.49467499137395e-07    1.09963264504474e-05
00.51    1.88190573600951e-03    4.31307791194531e-05    7.03613683199840e-07    1.19659953038723e-05
00.52    2.03249161866201e-03    4.68769598727876e-05    7.61166914162628e-07    1.30038839521684e-05
00.53    2.19200889278274e-03    5.08838601787019e-05    8.22276573555397e-07    1.41138394728164e-05
00.54    2.36081067108969e-03    5.51661465744574e-05    8.87096060146240e-07    1.52999013143123e-05
00.55    2.53925769933008e-03    5.97392269639527e-05    9.55782810227444e-07    1.65663121182323e-05
00.56    2.72771846519678e-03    6.46192927753200e-05    1.02849832817215e-06    1.79175293593232e-05
00.57    2.92656930519020e-03    6.98233633737793e-05    1.10540822263365e-06    1.93582377858359e-05
00.58    3.13619450773659e-03    7.53693335391457e-05    1.18668227462048e-06    2.08933627938253e-05
00.59    3.35698642137573e-03    8.12760248104943e-05    1.27249452549118e-06    2.25280846107527e-05
00.60    3.58934557344942e-03    8.75632412068905e-05    1.36302334307298e-06    2.42678534757363e-05
00.61    3.83368080635260e-03    9.42518292642747e-05    1.45845146607696e-06    2.61184060321794e-05
00.62    4.09040944256050e-03    1.01363742823458e-04    1.55896601255273e-06    2.80857830581109e-05
00.63    4.35995747290848e-03    1.08922113552256e-04    1.66475845168216e-06    3.01763489328171e-05
00.64    4.64275975650662e-03    1.16951327143459e-04    1.77602456713211e-06    3.23968125498370e-05
00.65    4.93926021825563e-03    1.25477104947520e-04    1.89296441938741e-06    3.47542494495055e-05
00.66    5.24991203847211e-03    1.34526589003992e-04    2.01578232639728e-06    3.72561248560919e-05
00.67    5.57517784998744e-03    1.44128430838605e-04    2.14468681879381e-06    3.99103176598538e-05
00.68    5.91552995222123e-03    1.54312885247854e-04    2.27989063918826e-06    4.27251462346358e-05
00.69    6.27145054611343e-03    1.65111913590392e-04    2.42161076744866e-06    4.57093972185812e-05
00.70    6.64343199074320e-03    1.76559299306739e-04    2.57006850320093e-06    4.88723582210875e-05
00.71    7.03197707676986e-03    1.88690777415210e-04    2.72548950935393e-06    5.22238544980165e-05
00.72    7.43759935254585e-03    2.01544176779934e-04    2.88810368406083e-06    5.57742889222124e-05
00.73    7.86082351404981e-03    2.15159572523105e-04    3.05814478398018e-06    5.95346842702546e-05
00.74    8.30218586857644e-03    2.29579449022803e-04    3.23584980365083e-06    6.35167275870637e-05
00.75    8.76223481445361e-03    2.44848873147407e-04    3.42145835150118e-06    6.77328171165879e-05
00.76    9.24153128811538e-03    2.61015682209477e-04    3.61521221608941e-06    7.21961134182234e-05
00.77    9.74064914081472e-03    2.78130688851432e-04    3.81735526470191e-06    7.69205960845218e-05
00.78    1.02601754995829e-02    2.96247908198708e-04    4.02813348733473e-06    8.19211275164043e-05
00.79    1.08007111966740e-02    3.15424810641718e-04    4.24779489747103e-06    8.72135240141166e-05
00.80    1.13628713492963e-02    3.35722600773099e-04    4.47658911423272e-06    9.28146337551827e-05
00.81    1.19472860963673e-02    3.57206521596605e-04    4.71476649950145e-06    9.87424207083132e-05
00.82    1.25546014027021e-02    3.79946183475588e-04    4.96257700025301e-06    1.05016054701022e-04
00.83    1.31854798872828e-02    4.04015920613563e-04    5.22026891710403e-06    1.11656009395674e-04
00.84    1.38406016463242e-02    4.29495186263352e-04    5.48808760279132e-06    1.18684172125168e-04
00.85    1.45206651526846e-02    4.56469000360616e-04    5.76627412930886e-06    1.26123969564078e-04
00.86    1.52263882929973e-02    4.85028460847569e-04    6.05506370491620e-06    1.34000512013333e-04
00.87    1.59585095852128e-02    5.15271325630653e-04    6.35468354177923e-06    1.42340756730627e-04
00.88    1.67177894978394e-02    5.47302663393963e-04    6.66534994385770e-06    1.51173689073546e-04
00.89    1.75050117909064e-02    5.81235575670486e-04    6.98726458817600e-06    1.60530522484526e-04
00.90    1.83209848436304e-02    6.17192001655081e-04    7.32060998013131e-06    1.70444921221038e-04
00.91    1.91665430397181e-02    6.55303629046209e-04    7.66554427031162e-06    1.80953254438319e-04
00.92    2.00425483426462e-02    6.95712940097277e-04    8.02219525754415e-06    1.92094890370110e-04
00.93    2.09498922240022e-02    7.38574423993078e-04    8.39065367327171e-06    2.03912538920234e-04
00.94    2.18894979537198e-02    7.84055976269709e-04    8.77096585691059e-06    2.16452646978437e-04
00.95    2.28623231137528e-02    8.32340510172130e-04    9.16312593529302e-06    2.29765850477928e-04
00.96    2.38693621423783e-02    8.83627820165139e-04    9.56706756604968e-06    2.43907493505135e-04
00.97    2.49116488066213e-02    9.38136766169902e-04    9.98265444068827e-06    2.58938234801772e-04
00.98    2.59902589916824e-02    9.96107877717085e-04    1.04096680058414e-05    2.74924774494205e-04
00.99    2.71063146381539e-02    1.05780645501123e-03    1.08477902576863e-05    2.91940730344288e-04
01.00    2.82609900430804e-02    1.12352613307325e-03    1.12965798607186e-05    3.10067660984572e-04
01.01    2.94555212115578e-02    1.19359259150219e-03    1.17554420834328e-05    3.29396154125952e-04
01.02    3.06912178185589e-02    1.26836669641447e-03    1.22235959262240e-05    3.50026777470450e-04
01.03    3.19694751738535e-02    1.34824594161085e-03    1.27000474274578e-05    3.72070565042390e-04
01.04    3.32917815387897e-02    1.43366296074958e-03    1.31835835696175e-05    3.95648672453388e-04
01.05    3.46597149022888e-02    1.52508051523596e-03    1.36728056070873e-05    4.20891004161295e-04
01.06    3.60749242806665e-02    1.62298402591470e-03    1.41662191539964e-05    4.47934084633949e-04
01.07    3.75390945547396e-02    1.72787529363533e-03    1.46623878066694e-05    4.76919182265129e-04
01.08    3.90539006781398e-02    1.84027362402028e-03    1.51601358757614e-05    5.07992445494852e-04
01.09    4.06209650702946e-02    1.96073151708454e-03    1.56587587372013e-05    5.41309097587082e-04
01.10    4.22418375913661e-02    2.08986949440652e-03    1.61581778283730e-05    5.77043021917860e-04
01.11    4.39180176406172e-02    2.22842748277816e-03    1.66589772608121e-05    6.15401040991661e-04
01.12    4.56510298617604e-02    2.37731943346833e-03    1.71622936695285e-05    6.56638130185247e-04
01.13    4.74425498977233e-02    2.53766710643509e-03    1.76696033104461e-05    7.01066730851669e-04
01.14    4.92945592501977e-02    2.71078389320730e-03    1.81825455119899e-05    7.49051862418288e-04
01.15    5.12094943968292e-02    2.89808566444291e-03    1.87030040939316e-05    8.00985452621500e-04
01.16    5.31903511747643e-02    3.10092555104777e-03    1.92336931156626e-05    8.57238971453191e-04
01.17    5.52407119718678e-02    3.32038029208271e-03    1.97794185601398e-05    9.18102233102662e-04
01.18    5.73646780925696e-02    3.55704849929107e-03    2.03489983263016e-05    9.83725603592667e-04
01.19    5.95667059295927e-02    3.81094310977956e-03    2.09575479201275e-05    1.05408917625628e-03
01.20    6.18513576766888e-02    4.08155929149061e-03    2.16285520177725e-05    1.12902225244269e-03
01.21    6.42229837895894e-02    4.36816848157581e-03    2.23949489903289e-05    1.20828777749602e-03
01.22    6.66853600295311e-02    4.67033160277041e-03    2.32984596775376e-05    1.29172991034076e-03
01.23    6.92413151282094e-02    4.98855230323480e-03    2.43866546020989e-05    1.37946220972207e-03
01.24    7.18924115412323e-02    5.32492401699576e-03    2.57077616290430e-05    1.47205462518589e-03
01.25    7.46387774278103e-02    5.68358471818051e-03    2.73038654311810e-05    1.57066586760411e-03
01.26    7.74792153819282e-02    6.07079788041746e-03    2.92037644391288e-05    1.67706885922422e-03
01.27    8.04117073306683e-02    6.49453515874921e-03    3.14171345773824e-05    1.79353306746019e-03
01.28    8.34343731916022e-02    6.96353977904403e-03    3.39316442516700e-05    1.92255703365682e-03
01.29    8.65468184363567e-02    7.48598027298851e-03    3.67142307788732e-05    2.06648190828558e-03
01.30    8.97516484272484e-02    8.06793359482663e-03    3.97169924346788e-05    2.22705407519022e-03
01.31    9.30557834066187e-02    8.71203249565683e-03    4.28873215393171e-05    2.40503280385920e-03
01.32    9.64711378942232e-02    9.41664751195791e-03    4.61813217965183e-05    2.59994940929570e-03
01.33    1.00014276191665e-01    1.01759330588022e-02    4.95794882131471e-05    2.81011295020203e-03
01.34    1.03704828770429e-01    1.09809496467195e-02    5.31041798115532e-05    3.03292389691627e-03
01.35    1.07562715211879e-01    1.18218960322800e-02    5.68394229726083e-05    3.26550590210912e-03
01.36    1.11604498089162e-01    1.26912748875716e-02    6.09546325683474e-05    3.50560515898011e-03
01.37    1.15839412013343e-01    1.35876100127600e-02    6.57343455614893e-05    3.75264739959796e-03
01.38    1.20265727493456e-01    1.45191702827743e-02    7.16154653101153e-05    4.00879547512359e-03
01.39    1.24868117449193e-01    1.55070688684259e-02    7.92314649625377e-05    4.27982545720321e-03
01.40    1.29616634600413e-01    1.65871179298345e-02    8.94595965993607e-05    4.57564298628360e-03
01.41    1.34467835733276e-01    1.78099369331595e-02    1.03463074182215e-04    4.91029661989114e-03
01.42    1.39368531688801e-01    1.92390256250708e-02    1.22716742361276e-04    5.30140823909353e-03
01.43    1.44262588194516e-01    2.09467901798896e-02    1.49003634426448e-04    5.76902324314351e-03
01.44    1.49101096864846e-01    2.30088065528778e-02    1.84372684709449e-04    6.33397173129143e-03
01.45    1.53856005742115e-01    2.54968685144923e-02    2.31055150161610e-04    7.01591023817669e-03
01.46    1.58536894340467e-01    2.84715593722299e-02    2.91347461494842e-04    7.83126885772178e-03
01.47    1.63209999551788e-01    3.19752035207920e-02    3.67476953436074e-04    8.79135710705175e-03
01.48    1.68017931192756e-01    3.60261366861826e-02    4.61468416807075e-04    9.90089409246404e-03
01.49    1.73197965237238e-01    4.06153623726918e-02    5.75018558357694e-04    1.11572487110981e-02
01.50    1.79096665633624e-01    4.57069001096228e-02    7.09361995507688e-04    1.25507286580558e-02
01.51    1.86179106208343e-01    5.12434456908445e-02    8.65084672556104e-04    1.40663436375699e-02
01.52    1.95032102488777e-01    5.71591354523702e-02    1.04182586398776e-03    1.56875361504525e-02
01.53    2.06362025588524e-01    6.34008090942411e-02    1.23782934537608e-03    1.74023027620616e-02
01.54    2.20987782876730e-01    6.99576517706343e-02    1.44937021662057e-03    1.92117486178916e-02
01.55    2.39827331473670e-01    7.68960972912029e-02    1.67018637218267e-03    2.11402864076442e-02
01.56    2.63871901013064e-01    8.43926410400920e-02    1.89114500335446e-03    2.32454345480660e-02
01.57    2.94138319286028e-01    9.27528881719810e-02    2.10041922706557e-03    2.56237887269155e-02
01.58    3.31590551559552e-01    1.02402724091379e-01    2.28438695569511e-03    2.84088234422551e-02
01.59    3.77030269204462e-01    1.13839145971386e-01    2.42928194723629e-03    3.17564493046843e-02
01.60    4.30972038119442e-01    1.27535382714911e-01    2.52338401360899e-03    3.58162392194799e-02
01.61    4.93534024813816e-01    1.43806955132122e-01    2.55935499676955e-03    4.06899359016878e-02
01.62    5.64378222110856e-01    1.62659465795431e-01    2.53634434087152e-03    4.63834878921306e-02
01.63    6.42716420116536e-01    1.83650678942406e-01    2.46174940214316e-03    5.27629985719766e-02
01.64    7.27362683472342e-01    2.05804693718147e-01    2.35288018790004e-03    5.95270902687162e-02
01.65    8.16777801234853e-01    2.27612538918065e-01    2.23893726192974e-03    6.62072620275441e-02
01.66    9.09040331812650e-01    2.47141330019314e-01    2.16338724538724e-03    7.22036080373670e-02
01.67    1.00170709243647e+00    2.62254607149357e-01    2.18598693010131e-03    7.68562611042922e-02
01.68    1.09158641536734e+00    2.70921776006279e-01    2.38268200499251e-03    7.95442562745168e-02
01.69    1.17451487489446e+00    2.71568521366260e-01    2.84100877905312e-03    7.97949929143971e-02
01.70    1.24527306904886e+00    2.63399659116198e-01    3.64913820445456e-03    7.73816966548219e-02
01.71    1.29777879980670e+00    2.46620649959898e-01    4.87866624243286e-03    7.23860548740958e-02
01.72    1.32565027982432e+00    2.22501057458396e-01    6.56430140569597e-03    6.52100485784916e-02
01.73    1.32314036352081e+00    1.93260680086862e-01    8.68649799649610e-03    5.65335058027933e-02
01.74    1.28631698119429e+00    1.61803502363691e-01    1.11640920612740e-02    4.72274660226339e-02
01.75    1.21423526740056e+00    1.31357127329888e-01    1.38618077624508e-02    3.82424712721012e-02
01.76    1.10976696385518e+00    1.05083340325227e-01    1.66123454558651e-02    3.04921954104285e-02
01.77    9.79780567011839e-01    8.57110193912072e-02    1.92468007907458e-02    2.47476905795939e-02
01.78    8.34523022790133e-01    7.52207810975668e-02    2.16235190687811e-02    2.15507131322123e-02
01.79    6.86294138691094e-01    7.45982927026177e-02    2.36462872355232e-02    2.11507531137783e-02
01.80    5.47725434080654e-01    8.36765422120250e-02    2.52676161278584e-02    2.34708365474786e-02
01.81    4.30073124222332e-01    1.01098637852869e-01    2.64790471378403e-02    2.81092521285900e-02
01.82    3.41870905052666e-01    1.24435856962352e-01    2.72947129270265e-02    3.43837747605368e-02
01.83    2.88109645160152e-01    1.50478022004652e-01    2.77351205431744e-02    4.14190824037257e-02
01.84    2.69920654322661e-01    1.75674648190839e-01    2.78159195974562e-02    4.82678932584508e-02
01.85    2.84632421557337e-01    1.96659114895478e-01    2.75432575981930e-02    5.40460024738386e-02
01.86    3.26084457551794e-01    2.10754590739199e-01    2.69149915473019e-02    5.80556895685773e-02
01.87    3.85180119125700e-01    2.16356002983950e-01    2.59260987029062e-02    5.98737733565834e-02
01.88    4.50758093642090e-01    2.13111010456898e-01    2.45765957267499e-02    5.93894286015546e-02
01.89    5.10872788186090e-01    2.01874464993072e-01    2.28803219363893e-02    5.67893665265706e-02
01.90    5.54458036920049e-01    1.84466116920205e-01    2.08726998688201e-02    5.24996433514985e-02
01.91    5.73144166579068e-01    1.63301758177913e-01    1.86153308529572e-02    4.71006945663356e-02
01.92    5.62811423780910e-01    1.40983884218960e-01    1.61955817307560e-02    4.12340362529430e-02
01.93    5.24414901400929e-01    1.19930753276439e-01    1.37204744962582e-02    3.55165664962131e-02
01.94    4.63772053170114e-01    1.02100889381043e-01    1.13059372648713e-02    3.04737290617025e-02
01.95    3.90320864061289e-01    8.88426315085923e-02    9.06407748114572e-03    2.64977753352407e-02
