# RiF 1e-20 (cm^2/W)
# 1w RpP RpS RsP RsS
# Gaussian absolute broadening  0.04 [eV]
   0.0100000  2.257806e-09  2.889281e-09  1.684185e-09  5.708427e-10  
   0.0200000  3.058554e-09  3.911139e-09  2.279747e-09  7.727035e-10  
   0.0300000  4.163588e-09  5.319931e-09  3.100780e-09  1.050987e-09  
   0.0400000  5.684210e-09  7.256463e-09  4.229309e-09  1.433493e-09  
   0.0500000  7.765168e-09  9.903420e-09  5.771745e-09  1.956291e-09  
   0.0600000  1.058962e-08  1.349134e-08  7.862348e-09  2.664888e-09  
   0.0700000  1.438249e-08  1.830240e-08  1.066542e-08  3.614973e-09  
   0.0800000  1.941160e-08  2.467129e-08  1.437579e-08  4.872586e-09  
   0.0900000  2.598676e-08  3.298334e-08  1.921772e-08  6.513746e-09  
   0.1000000  3.445771e-08  4.367121e-08  2.544289e-08  8.623769e-09  
   0.1100000  4.521237e-08  5.721177e-08  3.332866e-08  1.129667e-08  
   0.1200000  5.867656e-08  7.412494e-08  4.317725e-08  1.463491e-08  
   0.1300000  7.531577e-08  9.497484e-08  5.531636e-08  1.874960e-08  
   0.1400000  9.563838e-08  1.203729e-07  7.010106e-08  2.376112e-08  
   0.1500000  1.201995e-07  1.509814e-07  8.791572e-08  2.979983e-08  
   0.1600000  1.496051e-07  1.875173e-07  1.091761e-07  3.700674e-08  
   0.1700000  1.845149e-07  2.307549e-07  1.343309e-07  4.553403e-08  
   0.1800000  2.256453e-07  2.815269e-07  1.638626e-07  5.554543e-08  
   0.1900000  2.737717e-07  3.407268e-07  1.982881e-07  6.721635e-08  
   0.2000000  3.297309e-07  4.093095e-07  2.381595e-07  8.073420e-08  
   0.2100000  3.944235e-07  4.882921e-07  2.840643e-07  9.629851e-08  
   0.2200000  4.688162e-07  5.787562e-07  3.366266e-07  1.141212e-07  
   0.2300000  5.539461e-07  6.818486e-07  3.965074e-07  1.344270e-07  
   0.2400000  6.509219e-07  7.987834e-07  4.644057e-07  1.574535e-07  
   0.2500000  7.609295e-07  9.308446e-07  5.410594e-07  1.834519e-07  
   0.2600000  8.852342e-07  1.079387e-06  6.272466e-07  2.126868e-07  
   0.2700000  1.025186e-06  1.245842e-06  7.237872e-07  2.454378e-07  
   0.2800000  1.182222e-06  1.431712e-06  8.315423e-07  2.819982e-07  
   0.2900000  1.357874e-06  1.638584e-06  9.514178e-07  3.226774e-07  
   0.3000000  1.553768e-06  1.868126e-06  1.084365e-06  3.678001e-07  
   0.3100000  1.771637e-06  2.122089e-06  1.231380e-06  4.177070e-07  
   0.3200000  2.013316e-06  2.402313e-06  1.393508e-06  4.727562e-07  
   0.3300000  2.280761e-06  2.710732e-06  1.571846e-06  5.333234e-07  
   0.3400000  2.576038e-06  3.049372e-06  1.767539e-06  5.998015e-07  
   0.3500000  2.901346e-06  3.420360e-06  1.981786e-06  6.726032e-07  
   0.3600000  3.259013e-06  3.825930e-06  2.215843e-06  7.521609e-07  
   0.3700000  3.651502e-06  4.268416e-06  2.471020e-06  8.389264e-07  
   0.3800000  4.081426e-06  4.750270e-06  2.748687e-06  9.333742e-07  
   0.3900000  4.551549e-06  5.274061e-06  3.050277e-06  1.036000e-06  
   0.4000000  5.064795e-06  5.842482e-06  3.377281e-06  1.147323e-06  
   0.4100000  5.624253e-06  6.458345e-06  3.731262e-06  1.267885e-06  
   0.4200000  6.233195e-06  7.124605e-06  4.113848e-06  1.398257e-06  
   0.4300000  6.895076e-06  7.844361e-06  4.526737e-06  1.539033e-06  
   0.4400000  7.613539e-06  8.620845e-06  4.971697e-06  1.690834e-06  
   0.4500000  8.392444e-06  9.457457e-06  5.450581e-06  1.854313e-06  
   0.4600000  9.235850e-06  1.035775e-05  5.965318e-06  2.030151e-06  
   0.4700000  1.014805e-05  1.132544e-05  6.517909e-06  2.219061e-06  
   0.4800000  1.113357e-05  1.236445e-05  7.110452e-06  2.421791e-06  
   0.4900000  1.219719e-05  1.347886e-05  7.745131e-06  2.639122e-06  
   0.5000000  1.334393e-05  1.467296e-05  8.424215e-06  2.871873e-06  
   0.5100000  1.457909e-05  1.595123e-05  9.150080e-06  3.120899e-06  
   0.5200000  1.590825e-05  1.731840e-05  9.925190e-06  3.387100e-06  
   0.5300000  1.733730e-05  1.877942e-05  1.075212e-05  3.671415e-06  
   0.5400000  1.887243e-05  2.033946e-05  1.163355e-05  3.974834e-06  
   0.5500000  2.052011e-05  2.200397e-05  1.257227e-05  4.298383e-06  
   0.5600000  2.228722e-05  2.377865e-05  1.357119e-05  4.643151e-06  
   0.5700000  2.418094e-05  2.566951e-05  1.463333e-05  5.010271e-06  
   0.5800000  2.620883e-05  2.768285e-05  1.576185e-05  5.400937e-06  
   0.5900000  2.837882e-05  2.982529e-05  1.696003e-05  5.816403e-06  
   0.6000000  3.069927e-05  3.210380e-05  1.823131e-05  6.257982e-06  
   0.6100000  3.317887e-05  3.452567e-05  1.957921e-05  6.727048e-06  
   0.6200000  3.582680e-05  3.709861e-05  2.100747e-05  7.225058e-06  
   0.6300000  3.865269e-05  3.983072e-05  2.251993e-05  7.753538e-06  
   0.6400000  4.166657e-05  4.273053e-05  2.412063e-05  8.314087e-06  
   0.6500000  4.487898e-05  4.580703e-05  2.581373e-05  8.908398e-06  
   0.6600000  4.830100e-05  4.906969e-05  2.760360e-05  9.538248e-06  
   0.6700000  5.194406e-05  5.252851e-05  2.949475e-05  1.020551e-05  
   0.6800000  5.582022e-05  5.619397e-05  3.149188e-05  1.091215e-05  
   0.6900000  5.994208e-05  6.007728e-05  3.359993e-05  1.166026e-05  
   0.7000000  6.432272e-05  6.419011e-05  3.582397e-05  1.245204e-05  
   0.7100000  6.897578e-05  6.854493e-05  3.816933e-05  1.328979e-05  
   0.7200000  7.391556e-05  7.315489e-05  4.064151e-05  1.417600e-05  
   0.7300000  7.915672e-05  7.803385e-05  4.324622e-05  1.511322e-05  
   0.7400000  8.471467e-05  8.319653e-05  4.598945e-05  1.610421e-05  
   0.7500000  9.060536e-05  8.865855e-05  4.887737e-05  1.715188e-05  
   0.7600000  9.684527e-05  9.443647e-05  5.191641e-05  1.825930e-05  
   0.7700000  1.034515e-04  1.005478e-04  5.511321e-05  1.942974e-05  
   0.7800000  1.104416e-04  1.070113e-04  5.847469e-05  2.066665e-05  
   0.7900000  1.178338e-04  1.138467e-04  6.200806e-05  2.197374e-05  
   0.8000000  1.256466e-04  1.210752e-04  6.572068e-05  2.335490e-05  
   0.8100000  1.338991e-04  1.287192e-04  6.962022e-05  2.481431e-05  
   0.8200000  1.426109e-04  1.368028e-04  7.371462e-05  2.635638e-05  
   0.8300000  1.518019e-04  1.453515e-04  7.801206e-05  2.798587e-05  
   0.8400000  1.614921e-04  1.543926e-04  8.252099e-05  2.970783e-05  
   0.8500000  1.717017e-04  1.639555e-04  8.725011e-05  3.152766e-05  
   0.8600000  1.824510e-04  1.740714e-04  9.220822e-05  3.345116e-05  
   0.8700000  1.937599e-04  1.847740e-04  9.740450e-05  3.548451e-05  
   0.8800000  2.056480e-04  1.960994e-04  1.028482e-04  3.763439e-05  
   0.8900000  2.181343e-04  2.080865e-04  1.085486e-04  3.990795e-05  
   0.9000000  2.312364e-04  2.207773e-04  1.145153e-04  4.231293e-05  
   0.9100000  2.449705e-04  2.342170e-04  1.207578e-04  4.485769e-05  
   0.9200000  2.593506e-04  2.484548e-04  1.272854e-04  4.755119e-05  
   0.9300000  2.743886e-04  2.635435e-04  1.341072e-04  5.040325e-05  
   0.9400000  2.900925e-04  2.795413e-04  1.412320e-04  5.342452e-05  
   0.9500000  3.064667e-04  2.965110e-04  1.486683e-04  5.662654e-05  
   0.9600000  3.235104e-04  3.145218e-04  1.564237e-04  6.002202e-05  
   0.9700000  3.412174e-04  3.336491e-04  1.645049e-04  6.362482e-05  
   0.9800000  3.595743e-04  3.539759e-04  1.729175e-04  6.745022e-05  
   0.9900000  3.785606e-04  3.755942e-04  1.816656e-04  7.151513e-05  
   1.0000000  3.981462e-04  3.986056e-04  1.907517e-04  7.583806e-05  
   1.0100000  4.182913e-04  4.231220e-04  2.001762e-04  8.043974e-05  
   1.0200000  4.389445e-04  4.492665e-04  2.099372e-04  8.534272e-05  
   1.0300000  4.600432e-04  4.771746e-04  2.200300e-04  9.057175e-05  
   1.0400000  4.815146e-04  5.069908e-04  2.304480e-04  9.615345e-05  
   1.0500000  5.032789e-04  5.388699e-04  2.411824e-04  1.021161e-04  
   1.0599999  5.252550e-04  5.729741e-04  2.522242e-04  1.084892e-04  
   1.0700001  5.473695e-04  6.094751e-04  2.635658e-04  1.153042e-04  
   1.0800000  5.695673e-04  6.485538e-04  2.752033e-04  1.225940e-04  
   1.0900000  5.918215e-04  6.904113e-04  2.871399e-04  1.303950e-04  
   1.1000000  6.141448e-04  7.352773e-04  2.993887e-04  1.387490e-04  
   1.1100000  6.365930e-04  7.834237e-04  3.119738e-04  1.477056e-04  
   1.1200000  6.592679e-04  8.351720e-04  3.249324e-04  1.573234e-04  
   1.1300000  6.823189e-04  8.908949e-04  3.383155e-04  1.676704e-04  
   1.1400000  7.059485e-04  9.509974e-04  3.521888e-04  1.788206e-04  
   1.1500000  7.304352e-04  1.015884e-03  3.666390e-04  1.908476e-04  
   1.1600000  7.561806e-04  1.085908e-03  3.817843e-04  2.038155e-04  
   1.1700000  7.837924e-04  1.161322e-03  3.977965e-04  2.177690e-04  
   1.1799999  8.142028e-04  1.242239e-03  4.149323e-04  2.327265e-04  
   1.1900001  8.488160e-04  1.328630e-03  4.335747e-04  2.486799e-04  
   1.2000000  8.896476e-04  1.420377e-03  4.542768e-04  2.656040e-04  
   1.2100000  9.394334e-04  1.517381e-03  4.777999e-04  2.834769e-04  
   1.2200000  1.001635e-03  1.619723e-03  5.051275e-04  3.023092e-04  
   1.2300000  1.080308e-03  1.727836e-03  5.374434e-04  3.221773e-04  
   1.2400000  1.179777e-03  1.842658e-03  5.760576e-04  3.432501e-04  
   1.2500000  1.304141e-03  1.965704e-03  6.222796e-04  3.658044e-04  
   1.2600000  1.456630e-03  2.099030e-03  6.772420e-04  3.902155e-04  
   1.2700000  1.638947e-03  2.245052e-03  7.417087e-04  4.169257e-04  
   1.2800000  1.850755e-03  2.406230e-03  8.159025e-04  4.463843e-04  
   1.2900000  2.089545e-03  2.584679e-03  8.994181e-04  4.789769e-04  
   1.3000000  2.351120e-03  2.781763e-03  9.912852e-04  5.149482e-04  
   1.3099999  2.630939e-03  2.997779e-03  1.090243e-03  5.543463e-04  
   1.3200001  2.926517e-03  3.231841e-03  1.195287e-03  5.969990e-04  
   1.3300000  3.240965e-03  3.482013e-03  1.306519e-03  6.425406e-04  
   1.3400000  3.587750e-03  3.745798e-03  1.426301e-03  6.904997e-04  
   1.3500000  3.996531e-03  4.020880e-03  1.560709e-03  7.404381e-04  
   1.3600000  4.519952e-03  4.306125e-03  1.721208e-03  7.921321e-04  
   1.3700000  5.241157e-03  4.602665e-03  1.926512e-03  8.457724e-04  
   1.3800000  6.281788e-03  4.914910e-03  2.204515e-03  9.021468e-04  
   1.3900000  7.810260e-03  5.251296e-03  2.594237e-03  9.627766e-04  
   1.4000000  1.005020e-02  5.624618e-03  3.147687e-03  1.029975e-03  
   1.4100000  1.328914e-02  6.051801e-03  3.931591e-03  1.106801e-03  
   1.4200000  1.788775e-02  6.553072e-03  5.028933e-03  1.196910e-03  
   1.4299999  2.429016e-02  7.150547e-03  6.540240e-03  1.304288e-03  
   1.4400001  3.303611e-02  7.866374e-03  8.584498e-03  1.432918e-03  
   1.4500000  4.477428e-02  8.720527e-03  1.129930e-02  1.586375e-03  
   1.4600000  6.027793e-02  9.728642e-03  1.484007e-02  1.767434e-03  
   1.4700000  8.045804e-02  1.090004e-02  1.937719e-02  1.977713e-03  
   1.4800000  1.063700e-01  1.223638e-02  2.509014e-02  2.217432e-03  
   1.4900000  1.392054e-01  1.373128e-02  3.215739e-02  2.485353e-03  
   1.5000000  1.802588e-01  1.537154e-02  4.074065e-02  2.778990e-03  
   1.5100000  2.308577e-01  1.714027e-02  5.096319e-02  3.095187e-03  
   1.5200000  2.922504e-01  1.902259e-02  6.288289e-02  3.431138e-03  
   1.5300000  3.654537e-01  2.101388e-02  7.646348e-02  3.785854e-03  
   1.5400000  4.510843e-01  2.312984e-02  9.155055e-02  4.161975e-03  
   1.5500000  5.492260e-01  2.541697e-02  1.078642e-01  4.567626e-03  
   1.5599999  6.594271e-01  2.796036e-02  1.250246e-01  5.017805e-03  
   1.5700001  7.809781e-01  3.088520e-02  1.426333e-01  5.534641e-03  
   1.5800000  9.136583e-01  3.434784e-02  1.604335e-01  6.145800e-03  
   1.5900000  1.059191e+00  3.851442e-02  1.785738e-01  6.880671e-03  
   1.6000000  1.223552e+00  4.352633e-02  1.979824e-01  7.764225e-03  
   1.6100000  1.420171e+00  4.945690e-02  2.208322e-01  8.809349e-03  
   1.6200000  1.673708e+00  5.626731e-02  2.510354e-01  1.000900e-02  
   1.6300000  2.023656e+00  6.377142e-02  2.946450e-01  1.133006e-02  
   1.6400000  2.526454e+00  7.162122e-02  3.599862e-01  1.271080e-02  
   1.6500000  3.254472e+00  7.932051e-02  4.573133e-01  1.406334e-02  
   1.6600000  4.290136e+00  8.626959e-02  5.978084e-01  1.528170e-02  
   1.6700000  5.714219e+00  9.183738e-02  7.918494e-01  1.625453e-02  
   1.6799999  7.588682e+00  9.545037e-02  1.046667e+00  1.688090e-02  
   1.6900001  9.936588e+00  9.668382e-02  1.363765e+00  1.708634e-02  
   1.7000000  1.272336e+01  9.533840e-02  1.736682e+00  1.683633e-02  
   1.7100000  1.584564e+01  9.148908e-02  2.149883e+00  1.614470e-02  
   1.7200000  1.913242e+01  8.549497e-02  2.579324e+00  1.507528e-02  
   1.7300000  2.236183e+01  7.796877e-02  2.995028e+00  1.373629e-02  
   1.7400000  2.529198e+01  6.970853e-02  3.365411e+00  1.226827e-02  
   1.7500000  2.770019e+01  6.160212e-02  3.662491e+00  1.082712e-02  
   1.7600000  2.942118e+01  5.451740e-02  3.866801e+00  9.564851e-03  
   1.7700000  3.037463e+01  4.919381e-02  3.970702e+00  8.610653e-03  
   1.7800000  3.057482e+01  4.614929e-02  3.979249e+00  8.054670e-03  
   1.7900000  3.012021e+01  4.561487e-02  3.908379e+00  7.936794e-03  
   1.8000000  2.916674e+01  4.750559e-02  3.780990e+00  8.241799e-03  
   1.8099999  2.789239e+01  5.143232e-02  3.621983e+00  8.901585e-03  
   1.8200001  2.646253e+01  5.675324e-02  3.453518e+00  9.804366e-03  
   1.8300000  2.500398e+01  6.265930e-02  3.291534e+00  1.080962e-02  
   1.8400000  2.359168e+01  6.828246e-02  3.144052e+00  1.176698e-02  
   1.8500000  2.224876e+01  7.281114e-02  3.011322e+00  1.253617e-02  
   1.8600000  2.095699e+01  7.559574e-02  2.887411e+00  1.300524e-02  
   1.8700000  1.967321e+01  7.622875e-02  2.762670e+00  1.310426e-02  
   1.8800000  1.834756e+01  7.458723e-02  2.626495e+00  1.281247e-02  
   1.8900000  1.693949e+01  7.083233e-02  2.469874e+00  1.215802e-02  
   1.9000000  1.542943e+01  6.536849e-02  2.287371e+00  1.121080e-02  
   1.9100000  1.382473e+01  5.877116e-02  2.078305e+00  1.006984e-02  
   1.9200000  1.215946e+01  5.169772e-02  1.846989e+00  8.847978e-03  
   1.9299999  1.048913e+01  4.479783e-02  1.602100e+00  7.656410e-03  
   1.9400001  8.881878e+00  3.863790e-02  1.355313e+00  6.591776e-03  
   1.9500000  7.408592e+00  3.365054e-02  1.119603e+00  5.727557e-03  
   1.9600000  6.134160e+00  3.011217e-02  9.075139e-01  5.110339e-03  
   1.9700000  5.112083e+00  2.814840e-02  7.298523e-01  4.760800e-03  
   1.9800000  4.382854e+00  2.775854e-02  5.949410e-01  4.678000e-03  
   1.9900000  3.975710e+00  2.885016e-02  5.084956e-01  4.845352e-03  
   2.0000000  3.912220e+00  3.127373e-02  4.739510e-01  5.236607e-03  
   2.0100000  4.209893e+00  3.485034e-02  4.930024e-01  5.820633e-03  
   2.0200000  4.884494e+00  3.938922e-02  5.661345e-01  6.564461e-03  
   2.0300000  5.950578e+00  4.469552e-02  6.930093e-01  7.434649e-03  
   2.0400000  7.420734e+00  5.057169e-02  8.727065e-01  8.397539e-03  
   2.0500000  9.304350e+00  5.681603e-02  1.103879e+00  9.419036e-03  
   2.0599999  1.160661e+01  6.322145e-02  1.384888e+00  1.046441e-02  
   2.0699999  1.432758e+01  6.957582e-02  1.713912e+00  1.149834e-02  
   2.0799999  1.746058e+01  7.566365e-02  2.088922e+00  1.248522e-02  
   2.0899999  2.098847e+01  8.126871e-02  2.507365e+00  1.338959e-02  
   2.0999999  2.487717e+01  8.617780e-02  2.965454e+00  1.417671e-02  
   2.1099999  2.906673e+01  9.018678e-02  3.457063e+00  1.481363e-02  
   2.1199999  3.346211e+01  9.311102e-02  3.972483e+00  1.527074e-02  
   2.1300001  3.792719e+01  9.480016e-02  4.497442e+00  1.552424e-02  
   2.1400001  4.228518e+01  9.515700e-02  5.012810e+00  1.555905e-02  
   2.1500001  4.632957e+01  9.415595e-02  5.495544e+00  1.537189e-02  
   2.1600001  4.984359e+01  9.185646e-02  5.920742e+00  1.497324e-02  
   2.1700001  5.262667e+01  8.840514e-02  6.264638e+00  1.438772e-02  
   2.1800001  5.452177e+01  8.402464e-02  6.507920e+00  1.365223e-02  
   2.1900001  5.543673e+01  7.898944e-02  6.638480e+00  1.281189e-02  
   2.2000000  5.535438e+01  7.359263e-02  6.652919e+00  1.191469e-02  
   2.2100000  5.432893e+01  6.811094e-02  6.556393e+00  1.100583e-02  
   2.2200000  5.246975e+01  6.277467e-02  6.360861e+00  1.012279e-02  
   2.2300000  4.991791e+01  5.774771e-02  6.082347e+00  9.292169e-03  
   2.2400000  4.682217e+01  5.312058e-02  5.737946e+00  8.528619e-03  
   2.2500000  4.332034e+01  4.891530e-02  5.343453e+00  7.835649e-03  
   2.2600000  3.953040e+01  4.509971e-02  4.912148e+00  7.208005e-03  
   2.2700000  3.555145e+01  4.160747e-02  4.454833e+00  6.634896e-03  
   2.2800000  3.147149e+01  3.835950e-02  3.980847e+00  6.103470e-03  
   2.2900000  2.737786e+01  3.528379e-02  3.499474e+00  5.601989e-03  
   2.3000000  2.336521e+01  3.233080e-02  3.021114e+00  5.122274e-03  
   2.3099999  1.953798e+01  2.948259e-02  2.557789e+00  4.661162e-03  
   2.3199999  1.600677e+01  2.675475e-02  2.122840e+00  4.220782e-03  
   2.3299999  1.287986e+01  2.419129e-02  1.729960e+00  3.807754e-03  
   2.3399999  1.025294e+01  2.185399e-02  1.391899e+00  3.431485e-03  
   2.3499999  8.199503e+00  1.980842e-02  1.119221e+00  3.101983e-03  
   2.3599999  6.764197e+00  1.810985e-02  9.193490e-01  2.827639e-03  
   2.3699999  5.959507e+00  1.679195e-02  7.960253e-01  2.613466e-03  
   2.3800001  5.765387e+00  1.586038e-02  7.491180e-01  2.460114e-03  
   2.3900001  6.131038e+00  1.529254e-02  7.746821e-01  2.363836e-03  
   2.4000001  6.978009e+00  1.504254e-02  8.651657e-01  2.317283e-03  
   2.4100001  8.204571e+00  1.505029e-02  1.009769e+00  2.310919e-03  
   2.4200001  9.691439e+00  1.525172e-02  1.194960e+00  2.334618e-03  
   2.4300001  1.130918e+01  1.558770e-02  1.405219e+00  2.379058e-03  
   2.4400001  1.292709e+01  1.600975e-02  1.624028e+00  2.436603e-03  
   2.4500000  1.442287e+01  1.648151e-02  1.835038e+00  2.501536e-03  
   2.4600000  1.569188e+01  1.697641e-02  2.023294e+00  2.569719e-03  
   2.4700000  1.665457e+01  1.747321e-02  2.176351e+00  2.637888e-03  
   2.4800000  1.726115e+01  1.795107e-02  2.285124e+00  2.702913e-03  
   2.4900000  1.749282e+01  1.838604e-02  2.344373e+00  2.761247e-03  
   2.5000000  1.735972e+01  1.875006e-02  2.352763e+00  2.808767e-03  
   2.5100000  1.689620e+01  1.901281e-02  2.312554e+00  2.841024e-03  
   2.5200000  1.615465e+01  1.914642e-02  2.228986e+00  2.853952e-03  
   2.5300000  1.519899e+01  1.913319e-02  2.109556e+00  2.844960e-03  
   2.5400000  1.409928e+01  1.897581e-02  1.963292e+00  2.814426e-03  
   2.5500000  1.292856e+01  1.870955e-02  1.800221e+00  2.767432e-03  
   2.5599999  1.176192e+01  1.841385e-02  1.631046e+00  2.715422e-03  
   2.5699999  1.067737e+01  1.821960e-02  1.466990e+00  2.677230e-03  
   2.5799999  9.756603e+00  1.830695e-02  1.319621e+00  2.678738e-03  
   2.5899999  9.083736e+00  1.888931e-02  1.200429e+00  2.750552e-03  
   2.5999999  8.739898e+00  2.018196e-02  1.119979e+00  2.923475e-03  
   2.6099999  8.793386e+00  2.235873e-02  1.086627e+00  3.222294e-03  
   2.6199999  9.286663e+00  2.550532e-02  1.105028e+00  3.659094e-03  
   2.6300001  1.022359e+01  2.958123e-02  1.174835e+00  4.227850e-03  
   2.6400001  1.156083e+01  3.440139e-02  1.290058e+00  4.901874e-03  
   2.6500001  1.320728e+01  3.964655e-02  1.439440e+00  5.635384e-03  
   2.6600001  1.503247e+01  4.490043e-02  1.607863e+00  6.368918e-03  
   2.6700001  1.688285e+01  4.970779e-02  1.778510e+00  7.037714e-03  
   2.6800001  1.860195e+01  5.364006e-02  1.935248e+00  7.581094e-03  
   2.6900001  2.004971e+01  5.635435e-02  2.064641e+00  7.950877e-03  
   2.7000000  2.111684e+01  5.763446e-02  2.157146e+00  8.117129e-03  
   2.7100000  2.173212e+01  5.740825e-02  2.207409e+00  8.070536e-03  
   2.7200000  2.186320e+01  5.574146e-02  2.213805e+00  7.821359e-03  
   2.7300000  2.151304e+01  5.281354e-02  2.177617e+00  7.395873e-03  
   2.7400000  2.071469e+01  4.888317e-02  2.102252e+00  6.831352e-03  
   2.7500000  1.952628e+01  4.425083e-02  1.992729e+00  6.170668e-03  
   2.7600000  1.802667e+01  3.922436e-02  1.855470e+00  5.457425e-03  
   2.7700000  1.631089e+01  3.409107e-02  1.698221e+00  4.732004e-03  
   2.7800000  1.448396e+01  2.909729e-02  1.529869e+00  4.028760e-03  
   2.7900000  1.265257e+01  2.443553e-02  1.359973e+00  3.374295e-03  
   2.8000000  1.091486e+01  2.023837e-02  1.197951e+00  2.786707e-03  
