# RiF 1e-20 (cm^2/W)
# 1w(eV) RpP                     RpS                     RsP                     RsS
00.01    3.71731297319510e-07    7.13531517173878e-09    8.52127327937979e-11    1.66671018851852e-09
00.02    4.97949803592775e-07    9.56564975047493e-09    1.14168043952201e-10    2.23437079436650e-09
00.03    7.71048324689895e-07    1.48278023468506e-08    1.76828760184108e-10    3.46345177132496e-09
00.04    1.23225567489609e-06    2.37240676211230e-08    2.82676601426720e-10    5.54131059920034e-09
00.05    1.94317514971922e-06    3.74561182103376e-08    4.45886966476806e-10    8.74855777865332e-09
00.06    2.98549663428759e-06    5.76228695884360e-08    6.85272230228151e-10    1.34585435899034e-08
00.07    4.46063859693403e-06    8.62181165902786e-08    1.02421193781619e-09    2.01367862500629e-08
00.08    6.48936791004692e-06    1.25628856093048e-07    1.49058075485115e-09    2.93405555375150e-08
00.09    9.21145501879329e-06    1.78635397317692e-07    2.11668719878792e-09    4.17188698761131e-08
00.10    1.27854104032349e-05    2.48414162699990e-07    2.93923361242058e-09    5.80131161641402e-08
00.11    1.73883219971201e-05    3.38543578365011e-07    3.99930186327932e-09    7.90583865714365e-08
00.12    2.32157842406894e-05    4.53012921742277e-07    5.34236257078639e-09    1.05785499853523e-07
00.13    3.04818904348938e-05    5.96233616381440e-07    7.01830133956566e-09    1.39223589986020e-07
00.14    3.94192559019536e-05    7.73052421275642e-07    9.08145430692660e-09    1.80503129289234e-07
00.15    5.02790457537268e-05    9.88766040657033e-07    1.15906471974112e-08    2.30859282554501e-07
00.16    6.33309936362234e-05    1.24913697366256e-06    1.46092342688929e-08    2.91635548324403e-07
00.17    7.88634071595479e-05    1.56041059729168e-06    1.82051360334114e-08    3.64287683980414e-07
00.18    9.71831630680351e-05    1.92933365648756e-06    2.24508765682263e-08    4.50387955548208e-07
00.19    1.18615696787132e-04    2.36317433621177e-06    2.74236214913935e-08    5.51629745099883e-07
00.20    1.43504990428651e-04    2.86974416245794e-06    3.32052167738719e-08    6.69832571361535e-07
00.21    1.72213562145477e-04    3.45742181785759e-06    3.98822317864743e-08    8.06947543890010e-07
00.22    2.05122457247909e-04    4.13517904343052e-06    4.75460041387747e-08    9.65063304382512e-07
00.23    2.42631242243644e-04    4.91260864512127e-06    5.62926869866995e-08    1.14641246655904e-06
00.24    2.85158002350499e-04    5.79995470686930e-06    6.62232976399632e-08    1.35337858775744e-06
00.25    3.33139343818358e-04    6.80814524960200e-06    7.74437632246320e-08    1.58850373269151e-06
00.26    3.87030401667909e-04    7.94882760345141e-06    9.00649617906334e-08    1.85449665507451e-06
00.27    4.47304852616523e-04    9.23440690007021e-06    1.04202757433518e-07    2.15424165798023e-06
00.28    5.14454929833756e-04    1.06780881051789e-05    1.19978028412899e-07    2.49080820774631e-06
00.29    5.88991439497182e-04    1.22939218857136e-05    1.37516690257128e-07    2.86746136527887e-06
00.30    6.71443775285412e-04    1.40968542356708e-05    1.56949725360220e-07    3.28767308295751e-06
00.31    7.62359937983853e-04    1.61027801263801e-05    1.78413222820558e-07    3.75513448578943e-06
00.32    8.62306563032743e-04    1.83286010771650e-05    2.02048444762065e-07    4.27376920551855e-06
00.33    9.71868962534303e-04    2.07922871460838e-05    2.28001906304863e-07    4.84774786457196e-06
00.34    1.09165118088100e-03    2.35129437358616e-05    2.56425453987474e-07    5.48150371750520e-06
00.35    1.22227606316457e-03    2.65108842599652e-05    2.87476311887973e-07    6.17974955725647e-06
00.36    1.36438533112430e-03    2.98077093821552e-05    3.21317081917171e-07    6.94749594190326e-06
00.37    1.51863966033521e-03    3.34263935935055e-05    3.58115704104190e-07    7.79007093219967e-06
00.38    1.68571876079386e-03    3.73913796510940e-05    3.98045403658808e-07    8.71314166522343e-06
00.39    1.86632146362913e-03    4.17286815536592e-05    4.41284636610848e-07    9.72273803902011e-06
00.40    2.06116582392117e-03    4.64659964893052e-05    4.88017036853809e-07    1.08252787601194e-05
00.41    2.27098925059663e-03    5.16328272001583e-05    5.38431331721562e-07    1.20275999163523e-05
00.42    2.49654867136738e-03    5.72606159542205e-05    5.92721219992056e-07    1.33369861798161e-05
00.43    2.73862072819193e-03    6.33828913418253e-05    6.51085238855921e-07    1.47612048294612e-05
00.44    2.99800199245908e-03    7.00354289846779e-05    7.13726644981346e-07    1.63085428722632e-05
00.45    3.27550919543319e-03    7.72564275759230e-05    7.80853333049802e-07    1.79878477867358e-05
00.46    3.57197946676420e-03    8.50867020657859e-05    8.52677712973285e-07    1.98085723252555e-05
00.47    3.88827059397041e-03    9.35698960202223e-05    9.29416481692193e-07    2.17808239058787e-05
00.48    4.22526131199708e-03    1.02752716461302e-04    1.01129020366773e-06    2.39154191629611e-05
00.49    4.58385163196651e-03    1.12685193865180e-04    1.09852271189892e-06    2.62239443596923e-05
00.50    4.96496323205697e-03    1.23420972524625e-04    1.19134040508203e-06    2.87188228952344e-05
00.51    5.36953990915054e-03    1.35017635677808e-04    1.28997147086767e-06    3.14133910388667e-05
00.52    5.79854812712178e-03    1.47537072279971e-04    1.39464502065638e-06    3.43219834374523e-05
00.53    6.25297764106034e-03    1.61045890984897e-04    1.50559003025006e-06    3.74600298748215e-05
00.54    6.73384221587702e-03    1.75615888381288e-04    1.62303394429300e-06    4.08441646018998e-05
00.55    7.24218039375487e-03    1.91324578384783e-04    1.74720084871981e-06    4.44923499828232e-05
00.56    7.77905634068997e-03    2.08255792275581e-04    1.87830921518330e-06    4.84240167834807e-05
00.57    8.34556074705467e-03    2.26500361707654e-04    2.01656919120735e-06    5.26602240119736e-05
00.58    8.94281179363176e-03    2.46156898397424e-04    2.16217946015818e-06    5.72238414793826e-05
00.59    9.57195616870586e-03    2.67332683808500e-04    2.31532364610630e-06    6.21397587222617e-05
00.60    1.02341700943712e-02    2.90144691511883e-04    2.47616625585930e-06    6.74351246891972e-05
00.61    1.09306604240452e-02    3.14720771957174e-04    2.64484808071970e-06    7.31396252217483e-05
00.62    1.16626659509959e-02    3.41201053122324e-04    2.82148082691252e-06    7.92858105042107e-05
00.63    1.24314592435928e-02    3.69739630900816e-04    3.00614029915350e-06    8.59094899396080e-05
00.64    1.32383495363737e-02    4.00506616210926e-04    3.19885718803102e-06    9.30502126922956e-05
00.65    1.40846872849239e-02    4.33690532730393e-04    3.39960437237544e-06    1.00751837095252e-04
00.66    1.49718706698932e-02    4.69500873741894e-04    3.60828050399639e-06    1.09063151357571e-04
00.67    1.59013537956213e-02    5.08170350489227e-04    3.82469171842875e-06    1.18038439661387e-04
00.68    1.68746549184807e-02    5.49956062464177e-04    4.04853658170981e-06    1.27737811075492e-04
00.69    1.78933616805878e-02    5.95138734386908e-04    4.27940309117265e-06    1.38227075879822e-04
00.70    1.89591291275182e-02    6.44019545849826e-04    4.51678911911858e-06    1.49577034539938e-04
00.71    2.00736663201735e-02    6.96915177795034e-04    4.76015668659988e-06    1.61862302505678e-04
00.72    2.12387099459324e-02    7.54153456116962e-04    5.00902369959971e-06    1.75160219578272e-04
00.73    2.24559879013414e-02    8.16073822003528e-04    5.26308376157240e-06    1.89550848458662e-04
00.74    2.37271821428765e-02    8.83037702557057e-04    5.52232789228905e-06    2.05119284913476e-04
00.75    2.50539052888062e-02    9.55452353617391e-04    5.78712830593988e-06    2.21961153604492e-04
00.76    2.64377071806818e-02    1.03380701099240e-03    6.05824334167135e-06    2.40191038066998e-04
00.77    2.78801232151515e-02    1.11871270174269e-03    6.33672301392410e-06    2.59951800675871e-04
00.78    2.93827664051913e-02    1.21092917017878e-03    6.62373977070358e-06    2.81420857847451e-04
00.79    3.09474516010986e-02    1.31135798930238e-03    6.92043020557597e-06    3.04808417681983e-04
00.80    3.25763282142284e-02    1.42098422250494e-03    7.22789007806994e-06    3.30343457710761e-04
00.81    3.42719906635613e-02    1.54076221365127e-03    7.54748635324440e-06    3.58246357510673e-04
00.82    3.60375356406239e-02    1.67146265423520e-03    7.88160804107497e-06    3.88692245662237e-04
00.83    3.78765417048510e-02    1.81352215772285e-03    8.23485991126370e-06    4.21774883219181e-04
00.84    3.97929559724650e-02    1.96695405182843e-03    8.61552673611494e-06    4.57485122869447e-04
00.85    4.17908830090907e-02    2.13138096552859e-03    9.03694778946917e-06    4.95718483028306e-04
00.86    4.38742818758194e-02    2.30623030425195e-03    9.51831238274794e-06    5.36321787410008e-04
00.87    4.60465921724897e-02    2.49109372504958e-03    1.00843843264820e-05    5.79179301247167e-04
00.88    4.83103336127312e-02    2.68619926057887e-03    1.07638260917698e-05    6.24326247250638e-04
00.89    5.06667553589869e-02    2.89289367550681e-03    1.15861106768969e-05    6.72065308353363e-04
00.90    5.31156443603237e-02    3.11399929824500e-03    1.25774122490289e-05    7.23053613827022e-04
00.91    5.56554184718177e-02    3.35390790278951e-03    1.37562425033015e-05    7.78327107436820e-04
00.92    5.82836105406564e-02    3.61831145565605e-03    1.51298258044679e-05    8.39237916291934e-04
00.93    6.09977786874350e-02    3.91354293856041e-03    1.66921900952060e-05    9.07297765650337e-04
00.94    6.37967588111207e-02    4.24559695054471e-03    1.84246755604325e-05    9.83943592098807e-04
00.95    6.66820346155471e-02    4.61899826500722e-03    2.02991074049106e-05    1.07026523753569e-03
00.96    6.96588824354645e-02    5.03576273099396e-03    2.22834048608993e-05    1.16675363283540e-03
00.97    7.27369026843646e-02    5.49472747879733e-03    2.43491052167067e-05    1.27313600315358e-03
00.98    7.59296107778966e-02    5.99150337388375e-03    2.64803273818813e-05    1.38835911477968e-03
00.99    7.92529273544525e-02    6.51922043714122e-03    2.86841271632691e-05    1.51076200663788e-03
01.00    8.27226439919860e-02    7.07010725337712e-03    3.10028875273576e-05    1.63844852029040e-03
01.01    8.63511811462821e-02    7.63778862840675e-03    3.35300563267636e-05    1.76983214575827e-03
01.02    9.01441342926539e-02    8.22002833952952e-03    3.64308276069901e-05    1.90428768774106e-03
01.03    9.40971835656545e-02    8.82151502674537e-03    3.99688874592140e-05    2.04281303284914e-03
01.04    9.81939251929165e-02    9.45621459545880e-03    4.45389417962741e-05    2.18858625348719e-03
01.05    1.02405111697379e-01    1.01488125643750e-02    5.07024404901740e-05    2.34730334168608e-03
01.06    1.06689714054518e-01    1.09348525179805e-02    5.92212212188052e-05    2.52720226541456e-03
01.07    1.10998175226928e-01    1.18593367577793e-02    7.10815081021689e-05    2.73871846856935e-03
01.08    1.15278199738165e-01    1.29737696675392e-02    8.74999678692618e-05    2.99377011363235e-03
01.09    1.19483364788743e-01    1.43318565561921e-02    1.09905302452396e-04    3.30472926991718e-03
01.10    1.23584672810416e-01    1.59842788715205e-02    1.39893445892623e-04    3.68318722758316e-03
01.11    1.27584832809921e-01    1.79731172229182e-02    1.79160582831183e-04    4.13865895402291e-03
01.12    1.31534541472032e-01    2.03265790938132e-02    2.29423098615944e-04    4.67739013971570e-03
01.13    1.35549399415931e-01    2.30547394170851e-02    2.92333267112056e-04    5.30143644125913e-03
01.14    1.39825510009853e-01    2.61470779855102e-02    3.69390894187130e-04    6.00819324095713e-03
01.15    1.44651537862533e-01    2.95727527852819e-02    4.61834612811240e-04    6.79058166737202e-03
01.16    1.50415294425887e-01    3.32847628275784e-02    5.70478323632025e-04    7.63814410771039e-03
01.17    1.57603797897039e-01    3.72292762267756e-02    6.95450811541325e-04    8.53933994128234e-03
01.18    1.66796807712109e-01    4.13611200883601e-02    8.35814222291597e-04    9.48528845353486e-03
01.19    1.78654151060010e-01    4.56653532210102e-02    9.89087724547358e-04    1.04749790477423e-02
01.20    1.93895779062508e-01    5.01826748467292e-02    1.15077823153402e-03    1.15214676427390e-02
01.21    2.13270448371130e-01    5.50333086574662e-02    1.31409410892124e-03    1.26578100928875e-02
01.22    2.37506113638804e-01    6.04307823704898e-02    1.47005320215212e-03    1.39406325940168e-02
01.23    2.67236054022656e-01    6.66751974683763e-02    1.60815979267610e-03    1.54486762702610e-02
01.24    3.02902832257068e-01    7.41169224040872e-02    1.71770616961683e-03    1.72738555583766e-02
01.25    3.44657255208335e-01    8.30873009353564e-02    1.78958625875318e-03    1.95037005031048e-02
01.26    3.92285183806139e-01    9.38025548411857e-02    1.81836645915963e-03    2.21965002063624e-02
01.27    4.45199869010448e-01    1.06258148778002e-01    1.80432684882410e-03    2.53534661889299e-02
01.28    5.02520461236641e-01    1.20139290107353e-01    1.75529968277023e-03    2.88946948732384e-02
01.29    5.63216890381337e-01    1.34774816480471e-01    1.68831757636482e-03    3.26464338278824e-02
01.30    6.26252422457342e-01    1.49154786433135e-01    1.63116336021830e-03    3.63455089241231e-02
01.31    6.90626495544811e-01    1.62018582827631e-01    1.62372108177875e-03    3.96630844198602e-02
01.32    7.55239081080490e-01    1.72004889444312e-01    1.71853418465065e-03    4.22454001571095e-02
01.33    8.18570350786524e-01    1.77842107925073e-01    1.97935080400324e-03    4.37651778652859e-02
01.34    8.78272111501321e-01    1.78549809919040e-01    2.47606681363327e-03    4.39749434835708e-02
01.35    9.30853886775296e-01    1.73618413620996e-01    3.27487198790519e-03    4.27528038185172e-02
01.36    9.71669899253815e-01    1.63135011301480e-01    4.42390350262375e-03    4.01321355847353e-02
01.37    9.95350387744995e-01    1.47829292768264e-01    5.93711379912123e-03    3.63091460123781e-02
01.38    9.96683850816075e-01    1.29026268150125e-01    7.78139278107326e-03    3.16262299768643e-02
01.39    9.71789257263690e-01    1.08510507017630e-01    9.87274114311953e-03    2.65337632750376e-02
01.40    9.19278941240848e-01    8.83240269943752e-02    1.20852918734661e-02    2.15369713641457e-02
01.41    8.41061316910415e-01    7.05296442269259e-02    1.42724239576270e-02    1.71363297778166e-02
01.42    7.42501124352358e-01    5.69706501471982e-02    1.62940633450453e-02    1.37692524134428e-02
01.43    6.31832915452044e-01    4.90502818537974e-02    1.80413097486261e-02    1.17588133586087e-02
01.44    5.18949996806415e-01    4.75486906558102e-02    1.94505771523044e-02    1.12737621584327e-02
01.45    4.13875830232855e-01    5.24961502098238e-02    2.05039932620255e-02    1.23040558225435e-02
01.46    3.25292196715885e-01    6.31266081252086e-02    2.12183309566550e-02    1.46567338297811e-02
01.47    2.59428568461244e-01    7.79367011164762e-02    2.16283859290178e-02    1.79762980903405e-02
01.48    2.19456909556553e-01    9.48636819445420e-02    2.17711035706344e-02    2.17904011619126e-02
01.49    2.05370076127828e-01    1.11570109917492e-01    2.16745858770140e-02    2.55759220907906e-02
01.50    2.14223933389237e-01    1.25791663441631e-01    2.13532293357044e-02    2.88345287093216e-02
01.51    2.40619037111497e-01    1.35680498439426e-01    2.08082388824131e-02    3.11632865528883e-02
01.52    2.77358423920038e-01    1.40071878858173e-01    2.00320814482919e-02    3.23065471047772e-02
01.53    3.16282384498852e-01    1.38619862864856e-01    1.90155423463052e-02    3.21801323646257e-02
01.54    3.49291143348020e-01    1.31782137188396e-01    1.77561330416680e-02    3.08658889507593e-02
01.55    3.69500529204215e-01    1.20671717447699e-01    1.62662997998518e-02    2.85814499778701e-02
01.56    3.72362968475228e-01    1.06821244589141e-01    1.45794557439551e-02    2.56344227358738e-02
01.57    3.56494001510318e-01    9.19169234577150e-02    1.27518832495811e-02    2.23714149849347e-02
01.58    3.23943712022781e-01    7.75545225689948e-02    1.08594158917397e-02    1.91308969078444e-02
01.59    2.79773459025079e-01    6.50551962511707e-02    8.98937005213487e-03    1.62061565469903e-02
01.60    2.31005345563641e-01    5.53606733254779e-02    7.22982009503693e-03    1.38216847857916e-02
01.61    1.85215358284569e-01    4.90096561838351e-02    5.65920186191033e-03    1.21237418894048e-02
01.62    1.49146172057390e-01    4.61819176200413e-02    4.33892159037069e-03    1.11836253264783e-02
01.63    1.27676374255526e-01    4.67850527555463e-02    3.31030708702797e-03    1.10102460651654e-02
01.64    1.23326929978440e-01    5.05533933669507e-02    2.59554560883794e-03    1.15672902465816e-02
01.65    1.36293963442707e-01    5.71312961743499e-02    2.20099502184605e-03    1.27899813994892e-02
01.66    1.64854560055108e-01    6.61237140795038e-02    2.12090832522055e-03    1.45975787044711e-02
01.67    2.05944507124902e-01    7.71121268281389e-02    2.34015448713349e-03    1.69000104807801e-02
01.68    2.55744714187051e-01    8.96476930522753e-02    2.83553527279069e-03    1.95996146346374e-02
01.69    3.10190936671174e-01    1.03240395486601e-01    3.57625969083270e-03    2.25907627373613e-02
01.70    3.65389354644808e-01    1.17360521135185e-01    4.52465364798519e-03    2.57604029481778e-02
01.71    4.17949679068002e-01    1.31458861467527e-01    5.63811018661706e-03    2.89912282712970e-02
01.72    4.65238438477987e-01    1.44999822919823e-01    6.87270484450101e-03    3.21670348749378e-02
01.73    5.05530556495931e-01    1.57493478076372e-01    8.18802587742786e-03    3.51781051449018e-02
01.74    5.38025664442727e-01    1.68512641333391e-01    9.55188257205493e-03    3.79241509050525e-02
01.75    5.62714449182979e-01    1.77689267334085e-01    1.09429923111128e-02    4.03137113371596e-02
01.76    5.80126804050351e-01    1.84696539680647e-01    1.23498648381719e-02    4.22611928209141e-02
01.77    5.91045044387803e-01    1.89232538350631e-01    1.37651464700047e-02    4.36846616186053e-02
01.78    5.96291414976914e-01    1.91023085124033e-01    1.51765591355783e-02    4.45078799541379e-02
01.79    5.96678429181846e-01    1.89853750182934e-01    1.65576306845574e-02    4.46684969820493e-02
01.80    5.93145322180647e-01    1.85627002578987e-01    1.78625854638644e-02    4.41313439361063e-02
01.81    5.87020826429116e-01    1.78426213503574e-01    1.90290325351557e-02    4.29027555331550e-02
01.82    5.80290272646501e-01    1.68560360616962e-01    1.99892234543766e-02    4.10402242569269e-02
01.83    5.75733878836757e-01    1.56566191820853e-01    2.06866870904872e-02    3.86524510925167e-02
01.84    5.76847849760963e-01    1.43158065753529e-01    2.10919753873170e-02    3.58879113718790e-02
01.85    5.87536836471020e-01    1.29134399654247e-01    2.12109077556988e-02    3.29141946007154e-02
01.86    6.11636823733694e-01    1.15265362057763e-01    2.10815505213195e-02    2.98937438994068e-02
01.87    6.52361223745695e-01    1.02192076466333e-01    2.07608811696237e-02    2.69626608934105e-02
01.88    7.11755045454886e-01    9.03611799873395e-02    2.03062821785628e-02    2.42175860752962e-02
01.89    7.90213552068377e-01    8.00042300797669e-02    1.97586886697494e-02    2.17123286963236e-02
01.90    8.86103741287272e-01    7.11566774625646e-02    1.91328902724567e-02    1.94626524381457e-02
01.91    9.95537818297147e-01    6.37022510985737e-02    1.84172559065189e-02    1.74558401809274e-02
01.92    1.11237919979522e+00    5.74275218186697e-02    1.75817778105966e-02    1.56617047295723e-02
01.93    1.22858070584986e+00    5.20755620313006e-02    1.65911500482223e-02    1.40428822530716e-02
01.94    1.33492405258992e+00    4.73926658051240e-02    1.54189871544488e-02    1.25634692023575e-02
01.95    1.42213424493879e+00    4.31650255375238e-02    1.40598901404077e-02    1.11956478663995e-02
