# RiF 1e-20 (cm^2/W)
# 1w(eV) RpP                     RpS                     RsP                     RsS
00.01    1.22835058117273e-08    1.70774957424082e-09    7.50571716260490e-12    7.93641852853623e-10
00.02    1.64533014648697e-08    2.28864998032676e-09    1.00553612769822e-11    1.06360858481749e-09
00.03    2.54750091891884e-08    3.54604532410227e-09    1.55725568599660e-11    1.64797084142238e-09
00.04    4.07096068243795e-08    5.67084849956896e-09    2.48913730000467e-11    2.63545839667531e-09
00.05    6.41902746553846e-08    8.94871676429662e-09    3.92584630742710e-11    4.15883656902952e-09
00.06    9.86124558521581e-08    1.37591946107415e-08    6.03277136507881e-11    6.39450976811578e-09
00.07    1.47321460953565e-07    2.05746866405831e-08    9.01536197287855e-11    9.56204646272882e-09
00.08    2.14299202096778e-07    2.99594768756170e-08    1.31184380005302e-10    1.39237268433675e-08
00.09    3.04151958665648e-07    4.25690572776406e-08    1.86255862295108e-10    1.97842350977730e-08
00.10    4.22100701049596e-07    5.91499758619285e-08    2.58587397854359e-10    2.74905946518860e-08
00.11    5.73974620430871e-07    8.05402963210281e-08    3.51779780887627e-10    3.74323885644817e-08
00.12    7.66207560749237e-07    1.07670628917663e-07    4.69815195835799e-10    5.00422461404416e-08
00.13    1.00583641261845e-06    1.41565608231707e-07    6.17058519423180e-10    6.57965373094608e-08
00.14    1.30050037757016e-06    1.83345675381907e-07    7.98259215279130e-10    8.52162062925899e-08
00.15    1.65844021996370e-06    2.34229043886431e-07    1.01855341637307e-09    1.08867692080161e-07
00.16    2.08849703695065e-06    2.95533795261644e-07    1.28346595754654e-09    1.37363908684721e-07
00.17    2.60011041402537e-06    3.68680079955167e-07    1.59891243618861e-09    1.71365278862252e-07
00.18    3.20331608583644e-06    4.55192442642612e-07    1.97120143030276e-09    2.11580830058457e-07
00.19    3.90874330049987e-06    5.56702303259312e-07    2.40703681697896e-09    2.58769364164435e-07
00.20    4.72761202204275e-06    6.74950618056764e-07    2.91352010345447e-09    3.13740710856224e-07
00.21    5.67173004650102e-06    8.11790752235369e-07    3.49815260606478e-09    3.77357075351736e-07
00.22    6.75348998352653e-06    9.69191562953539e-07    4.16883754858419e-09    4.50534484863462e-07
00.23    7.98586602256455e-06    1.14924070725824e-06    4.93388212505009e-09    5.34244342468109e-07
00.24    9.38241050590488e-06    1.35414816279925e-06    5.80199983069038e-09    6.29515093580797e-07
00.25    1.09572503563221e-05    1.58624998382930e-06    6.78231305826685e-09    7.37434009081466e-07
00.26    1.27250835200693e-05    1.84801232328737e-06    7.88435571554268e-09    8.59149091310668e-07
00.27    1.47011755328100e-05    2.14203574746009e-06    9.11807578012707e-09    9.95871106656994e-07
00.28    1.69013561577687e-05    2.47105988109932e-06    1.04938378266005e-08    1.14887574920226e-06
00.29    1.93420159624321e-05    2.83796837419637e-06    1.20224258246894e-08    1.31950594097052e-06
00.30    2.20401026280894e-05    3.24579417558421e-06    1.37150464717106e-08    1.50917427763930e-06
00.31    2.50131169053595e-05    3.69772508130885e-06    1.55833331425728e-08    1.71936562458863e-06
00.32    2.82791082137874e-05    4.19710952854476e-06    1.76393500577023e-08    1.95163987423718e-06
00.33    3.18566699633952e-05    4.74746266124872e-06    1.98955963730236e-08    2.20763487441404e-06
00.34    3.57649347763558e-05    5.35247274800604e-06    2.23650096165838e-08    2.48906953290464e-06
00.35    4.00235697491937e-05    6.01600805010529e-06    2.50609682678786e-08    2.79774711358976e-06
00.36    4.46527720558070e-05    6.74212428752805e-06    2.79972936483547e-08    3.13555874200766e-06
00.37    4.96732650909668e-05    7.53507272691449e-06    3.11882516481561e-08    3.50448713502429e-06
00.38    5.51062949880232e-05    8.39930883738357e-06    3.46485556416693e-08    3.90661057841539e-06
00.39    6.09736270707764e-05    9.33950142467386e-06    3.83933713451513e-08    4.34410715848566e-06
00.40    6.72975415776227e-05    1.03605421333583e-05    4.24383236488165e-08    4.81925926126438e-06
00.41    7.41008281340689e-05    1.14675553358606e-05    4.67995041137787e-08    5.33445833838313e-06
00.42    8.14067792749767e-05    1.26659085300311e-05    5.14934766303580e-08    5.89220996443612e-06
00.43    8.92391837678579e-05    1.39612233908869e-05    5.65372804488131e-08    6.49513919242113e-06
00.44    9.76223209767647e-05    1.53593876771819e-05    6.19484298447548e-08    7.14599623958050e-06
00.45    1.06580956939812e-04    1.68665680868038e-05    6.77449126456714e-08    7.84766252635303e-06
00.46    1.16140342169752e-04    1.84892241658992e-05    7.39451894588086e-08    8.60315711465315e-06
00.47    1.26326210146505e-04    2.02341232232370e-05    8.05681942983539e-08    9.41564358016753e-06
00.48    1.37164774974078e-04    2.21083561490691e-05    8.76333381117094e-08    1.02884373658448e-05
00.49    1.48682726776077e-04    2.41193539623259e-05    9.51605132049406e-08    1.12250136284358e-05
00.50    1.60907224912952e-04    2.62749050738158e-05    1.03170100093900e-07    1.22290155718173e-05
00.51    1.73865889930529e-04    2.85831734287204e-05    1.11682974107325e-07    1.33042632684660e-05
00.52    1.87586796557862e-04    3.10527179258746e-05    1.20720510501328e-07    1.44547630133139e-05
00.53    2.02098469181768e-04    3.36925135019167e-05    1.30304585852394e-07    1.56847172998976e-05
00.54    2.17429880167957e-04    3.65119739908624e-05    1.40457574972712e-07    1.69985355407873e-05
00.55    2.33610449956380e-04    3.95209767931955e-05    1.51202342504368e-07    1.84008456470584e-05
00.56    2.50670046585762e-04    4.27298889911513e-05    1.62562238136056e-07    1.98965064851836e-05
00.57    2.68638983577848e-04    4.61495949887455e-05    1.74561091365029e-07    2.14906211104971e-05
00.58    2.87548014957357e-04    4.97915258261259e-05    1.87223215317908e-07    2.31885509045523e-05
00.59    3.07428329246644e-04    5.36676903896677e-05    2.00573416419885e-07    2.49959304838178e-05
00.60    3.28311544379692e-04    5.77907090701211e-05    2.14636997758835e-07    2.69186836871859e-05
00.61    3.50229705608747e-04    6.21738502396237e-05    2.29439758930907e-07    2.89630409495297e-05
00.62    3.73215286931807e-04    6.68310698730779e-05    2.45007987120758e-07    3.11355581864278e-05
00.63    3.97301193914688e-04    7.17770549212073e-05    2.61368436657943e-07    3.34431375496598e-05
00.64    4.22520765861232e-04    7.70272699893240e-05    2.78548307206013e-07    3.58930496879464e-05
00.65    4.48907775387655e-04    8.25980068551784e-05    2.96575220515359e-07    3.84929571404051e-05
00.66    4.76496427003588e-04    8.85064359621639e-05    3.15477205219013e-07    4.12509386168565e-05
00.67    5.05321356971922e-04    9.47706601538864e-05    3.35282673537224e-07    4.41755141918702e-05
00.68    5.35417636150736e-04    1.01409771794615e-04    3.56020415517577e-07    4.72756724930417e-05
00.69    5.66820774976494e-04    1.08443915863223e-04    3.77719605535258e-07    5.05609011905215e-05
00.70    5.99566728376823e-04    1.15894360725557e-04    4.00409833610873e-07    5.40412218119716e-05
00.71    6.33691900356596e-04    1.23783577674930e-04    4.24121129941944e-07    5.77272289301662e-05
00.72    6.69233151888604e-04    1.32135328900237e-04    4.48883940625030e-07    6.16301329244029e-05
00.73    7.06227812636002e-04    1.40974762117847e-04    4.74729024646980e-07    6.57618049974364e-05
00.74    7.44713697489013e-04    1.50328511366733e-04    5.01687268571891e-07    7.01348240360846e-05
00.75    7.84729121553164e-04    1.60224802929563e-04    5.29789495415330e-07    7.47625257182755e-05
00.76    8.26312909346324e-04    1.70693568472852e-04    5.59066335242867e-07    7.96590557409650e-05
00.77    8.69504395035127e-04    1.81766567032269e-04    5.89548208573155e-07    8.48394288033133e-05
00.78    9.14343421742444e-04    1.93477520717884e-04    6.21265381159639e-07    9.03195954300875e-05
00.79    9.60870349513489e-04    2.05862267409512e-04    6.54248006081900e-07    9.61165171878701e-05
00.80    1.00912607937030e-03    2.18958931270393e-04    6.88526101136502e-07    1.02248249836507e-04
00.81    1.05915209409746e-03    2.32808110062848e-04    7.24129409064754e-07    1.08734033118804e-04
00.82    1.11099050541912e-03    2.47453077554818e-04    7.61087174626289e-07    1.15594386893656e-04
00.83    1.16468409955223e-03    2.62940002058488e-04    7.99427907444644e-07    1.22851215090568e-04
00.84    1.22027637393076e-03    2.79318187749268e-04    8.39179137705250e-07    1.30527921465688e-04
00.85    1.27781156828256e-03    2.96640347391126e-04    8.80367207297393e-07    1.38649541622441e-04
00.86    1.33733469550943e-03    3.14962914128183e-04    9.23017048234254e-07    1.47242894629738e-04
00.87    1.39889158110398e-03    3.34346396357674e-04    9.67151863753863e-07    1.56336755034405e-04
00.88    1.46252891633223e-03    3.54855775289821e-04    1.01279264237044e-06    1.65962044391356e-04
00.89    1.52829432546472e-03    3.76560946408811e-04    1.05995749629516e-06    1.76152043274162e-04
00.90    1.59623644195274e-03    3.99537211154768e-04    1.10866083183450e-06    1.86942627390278e-04
00.91    1.66640498832744e-03    4.23865833529716e-04    1.15891245374940e-06    1.98372536634253e-04
00.92    1.73885085357379e-03    4.49634679291889e-04    1.21071659346958e-06    2.10483685776164e-04
00.93    1.81362617350469e-03    4.76938957321400e-04    1.26407095399863e-06    2.23321526088036e-04
00.94    1.89078442583967e-03    5.05882077285058e-04    1.31896584593211e-06    2.36935463630863e-04
00.95    1.97038054940448e-03    5.36576638173803e-04    1.37538343593841e-06    2.51379339261580e-04
00.96    2.05247108815649e-03    5.69145571357607e-04    1.43329705790769e-06    2.66711981416342e-04
00.97    2.13711434931341e-03    6.03723479757727e-04    1.49267022495200e-06    2.82997852137359e-04
00.98    2.22437057781625e-03    6.40458236026940e-04    1.55345478070910e-06    3.00307819430587e-04
00.99    2.31430218581328e-03    6.79512893369255e-04    1.61558753526834e-06    3.18720086039734e-04
01.00    2.40697411735931e-03    7.21067892919767e-04    1.67898500015329e-06    3.38321271867087e-04
01.01    2.50245441946029e-03    7.65323370882385e-04    1.74353658994403e-06    3.59207562438861e-04
01.02    2.60081502859939e-03    8.12501109322904e-04    1.80909742952999e-06    3.81485706403641e-04
01.03    2.70213262741718e-03    8.62845398914866e-04    1.87548322150168e-06    4.05273508296107e-04
01.04    2.80648925343778e-03    9.16622012983041e-04    1.94247059059982e-06    4.30699418747318e-04
01.05    2.91397220704798e-03    9.74114893263699e-04    2.00980678320671e-06    4.57901007178830e-04
01.06    3.02467280653280e-03    1.03562121572887e-03    2.07723141427459e-06    4.87022609707841e-04
01.07    3.13868375626221e-03    1.10144716318533e-03    2.14450964926722e-06    5.18213244737463e-04
01.08    3.25609533072831e-03    1.17190839075558e-03    2.21147088055880e-06    5.51626701029749e-04
01.09    3.37699118896397e-03    1.24733977900077e-03    2.27804138400326e-06    5.87426012444100e-04
01.10    3.50144519262928e-03    1.32811740586823e-03    2.34425674086100e-06    6.25793755582142e-04
01.11    3.62952091346192e-03    1.41469106976546e-03    2.41024355791568e-06    6.66947407518994e-04
01.12    3.76127534653570e-03    1.50761880920013e-03    2.47617199914353e-06    7.11155691811450e-04
01.13    3.89676762163581e-03    1.60758799522337e-03    2.54219933211583e-06    7.58748524841122e-04
01.14    4.03607237541854e-03    1.71540438608741e-03    2.60844402342368e-06    8.10111613722595e-04
01.15    4.17929610452447e-03    1.83193451235968e-03    2.67503988662110e-06    8.65658638036662e-04
01.16    4.32659361486887e-03    1.95799955862478e-03    2.74231078913982e-06    9.25780082979151e-04
01.17    4.47818073203837e-03    2.09423854546451e-03    2.81107269574547e-06    9.90777257799284e-04
01.18    4.63433893803993e-03    2.24097942245524e-03    2.88301520639253e-06    1.06080010665736e-03
01.19    4.79540760619528e-03    2.39817049028675e-03    2.96105461673571e-06    1.13581416704941e-03
01.20    4.96176028991621e-03    2.56542366995246e-03    3.04950875533342e-06    1.21562169615983e-03
01.21    5.13376351742215e-03    2.74220142039984e-03    3.15394662936297e-06    1.29995255013584e-03
01.22    5.31172021631169e-03    2.92814229297958e-03    3.28062906972833e-06    1.38862262861164e-03
01.23    5.49580531879517e-03    3.12347430876812e-03    3.43557629910390e-06    1.48173547364357e-03
01.24    5.68600747529638e-03    3.32942313498144e-03    3.62344558745767e-06    1.57988199713005e-03
01.25    5.88209616100581e-03    3.54849732694246e-03    3.84652722548087e-06    1.68428105076378e-03
01.26    6.08363488948637e-03    3.78453664668782e-03    4.10421408187104e-06    1.79680502828535e-03
01.27    6.29005592518628e-03    4.04244620762259e-03    4.39322995119966e-06    1.91985219874934e-03
01.28    6.50079863157059e-03    4.32760496495068e-03    4.70871016959809e-06    2.05605924622414e-03
01.29    6.71549386707738e-03    4.64501936978631e-03    5.04595724216749e-06    2.20788762005009e-03
01.30    6.93415573655295e-03    4.99837362336043e-03    5.40242830002545e-06    2.37715694744467e-03
01.31    7.15732659749992e-03    5.38918673043701e-03    5.77935357907913e-06    2.56462809373950e-03
01.32    7.38611879038767e-03    5.81630677806175e-03    6.18242699580204e-06    2.76974911668629e-03
01.33    7.62211140350437e-03    6.27594515476529e-03    6.62129318584991e-06    2.99066449782071e-03
01.34    7.86709137001818e-03    6.76237826775967e-03    7.10804556991425e-06    3.22455164268299e-03
01.35    8.12266847727817e-03    7.26933223694859e-03    7.65552714331359e-06    3.46829366539454e-03
01.36    8.38983220814269e-03    7.79193540168103e-03    8.27670601686157e-06    3.71943292614158e-03
01.37    8.66854301223325e-03    8.32899722249862e-03    8.98657798876324e-06    3.97728702160314e-03
01.38    8.95745375096775e-03    8.88527373497647e-03    9.80777394806719e-06    4.24405970687636e-03
01.39    9.25383755459846e-03    9.47332951063527e-03    1.07802669923948e-05    4.52575384991191e-03
01.40    9.55376239484475e-03    1.01146173689182e-02    1.19743786329041e-05    4.83269891111644e-03
01.41    9.85251136810162e-03    1.08394740263015e-02    1.35049184941705e-05    5.17954381865406e-03
01.42    1.01452123183802e-02    1.16858651394927e-02    1.55431313157037e-05    5.58463420400786e-03
01.43    1.04276185013968e-02    1.26968870791558e-02    1.83226160365050e-05    6.06878085406728e-03
01.44    1.06969751126964e-02    1.39172162409368e-02    2.21359365172093e-05    6.65351943353271e-03
01.45    1.09529102867016e-02    1.53888575361160e-02    2.73204186668127e-05    7.35904297618827e-03
01.46    1.11982962038384e-02    1.71466562852776e-02    3.42343675340432e-05    8.20204447779432e-03
01.47    1.14400296550455e-02    1.92140980657096e-02    4.32277356104157e-05    9.19373312986863e-03
01.48    1.16896800152813e-02    2.15999509436687e-02    5.46127997162531e-05    1.03382946507185e-02
01.49    1.19639528234067e-02    2.42963505197360e-02    6.86392980232429e-05    1.16320785307823e-02
01.50    1.22849341511564e-02    2.72790310042971e-02    8.54743663011007e-05    1.30638387978366e-02
01.51    1.26801321231252e-02    3.05105549501707e-02    1.05181787990763e-04    1.46164334522811e-02
01.52    1.31824119768136e-02    3.39474731644101e-02    1.27690640398966e-04    1.62704502979204e-02
01.53    1.38299839653626e-02    3.75521229827010e-02    1.52744689159181e-04    1.80101579450588e-02
01.54    1.46665550740511e-02    4.13089301460721e-02    1.79833784035603e-04    1.98318058468440e-02
01.55    1.57415045248896e-02    4.52433753580047e-02    2.08125280591497e-04    2.17534590515219e-02
01.56    1.71094991443152e-02    4.94393545465753e-02    2.36429507784980e-04    2.38242747753821e-02
01.57    1.88285142724585e-02    5.40482073520860e-02    2.63237804386463e-04    2.61297393663212e-02
01.58    2.09551375034213e-02    5.92814671290261e-02    2.86855642424217e-04    2.87885407915251e-02
01.59    2.35367271221327e-02    6.53808892869826e-02    3.05617249273469e-04    3.19372946229002e-02
01.60    2.66015961356765e-02    7.25643855826359e-02    3.18127956702581e-04    3.57018381090766e-02
01.61    3.01503307401256e-02    8.09544298941633e-02    3.23463376774853e-04    4.01580436569626e-02
01.62    3.41524023873046e-02    9.05037954144106e-02    3.21284269674809e-04    4.52898571067024e-02
01.63    3.85510664626517e-02    1.00938321227344e-01    3.11901481318125e-04    5.09554744460227e-02
01.64    4.32756478653209e-02    1.11734713647830e-01    2.96403295961039e-04    5.68723612640730e-02
01.65    4.82549679239739e-02    1.22143273895923e-01    2.76969963502465e-04    6.26278696858284e-02
01.66    5.34219187627945e-02    1.31254642255718e-01    2.57404399181655e-04    6.77161667159029e-02
01.67    5.87003817962772e-02    1.38101253629910e-01    2.43733691967164e-04    7.15967158560471e-02
01.68    6.39731459817370e-02    1.41780898543109e-01    2.44583189252882e-04    7.37664431254716e-02
01.69    6.90408600514556e-02    1.41589688865413e-01    2.71001520310886e-04    7.38366169331169e-02
01.70    7.35917340662661e-02    1.37150329842821e-01    3.35554898317917e-04    7.16045758666338e-02
01.71    7.72035953035211e-02    1.28516718826385e-01    4.50742639453501e-04    6.71087564346251e-02
01.72    7.93911456679453e-02    1.16230971830600e-01    6.26993245165450e-04    6.06544337065084e-02
01.73    7.96944817037053e-02    1.01310891512075e-01    8.70602240894955e-04    5.28000815536684e-02
01.74    7.77873242031109e-02    8.51585100980829e-02    1.18197328817108e-03    4.43016718528569e-02
01.75    7.35730764239515e-02    6.93998629149437e-02    1.55447451564605e-03    3.60223496075832e-02
01.76    6.72385885844531e-02    5.56830751246937e-02    1.97415668987256e-03    2.88230606955754e-02
01.77    5.92485466441507e-02    4.54682657875133e-02    2.42048856402436e-03    2.34522803078599e-02
01.78    5.02820512973132e-02    3.98384004173095e-02    2.86812414037058e-03    2.04502247157378e-02
01.79    4.11296596417133e-02    3.93517293275394e-02    3.28952982373074e-03    2.00782426233984e-02
01.80    3.25779311324901e-02    4.39510321156359e-02    3.65810440572150e-03    2.22807992984631e-02
01.81    2.53072073651847e-02    5.29440850919573e-02    3.95127473910482e-03    2.66860399752881e-02
01.82    1.98190468212001e-02    6.50686286715153e-02    4.15299714616789e-03    3.26489747398325e-02
01.83    1.63973991254476e-02    7.86469608668161e-02    4.25518155453431e-03    3.93362228847803e-02
01.84    1.50977454020790e-02    9.18178102915011e-02    4.25779385143309e-03    4.58427602048974e-02
01.85    1.57547635832572e-02    1.02811100054838e-01    4.16773099664951e-03    5.13220486409666e-02
01.86    1.80020613814395e-02    1.10214094447804e-01    3.99688262792932e-03    5.51054810794626e-02
01.87    2.13043062746409e-02    1.13174112849380e-01    3.75995555545104e-03    5.67882777252182e-02
01.88    2.50077885158193e-02    1.11496653217532e-01    3.47257897705105e-03    5.62669280976491e-02
01.89    2.84153987238405e-02    1.05623966058052e-01    3.14998166448763e-03    5.37251381540490e-02
01.90    3.08843282154340e-02    9.65083499079599e-02    2.80627169648997e-03    4.95768368421832e-02
01.91    3.19321847180172e-02    8.54167617305596e-02    2.45417822130961e-03    4.43825357344154e-02
01.92    3.13262023536747e-02    7.37128464483720e-02    2.10507146995025e-03    3.87576464984031e-02
01.93    2.91280412993458e-02    6.26592405905737e-02    1.76911473870587e-03    3.32890050565593e-02
01.94    2.56768367629326e-02    5.32712571710758e-02    1.45544839872675e-03    2.84709193903415e-02
01.95    2.15125765158384e-02    4.62378905626272e-02    1.17232374108090e-03    2.46665581561999e-02
