# RiF 1e-20 (cm^2/W)
# 1w(eV) RpP                     RpS                     RsP                     RsS
00.01    1.29523114818440e-07    2.53374229903815e-09    4.24309493242564e-11    6.49585503694751e-10
00.02    1.73504155731239e-07    3.39565844957364e-09    5.68470559778387e-11    8.70551981714947e-10
00.03    2.68667096147089e-07    5.26135449678446e-09    8.80434244207133e-11    1.34885078323398e-09
00.04    4.29381261061002e-07    8.41415644748152e-09    1.40738908638205e-10    2.15710931743139e-09
00.05    6.77118094008608e-07    1.32780166561582e-08    2.21987644402762e-10    3.40400002356363e-09
00.06    1.04035209309838e-06    2.04162655848368e-08    3.41150027505265e-10    5.23391691468381e-09
00.07    1.55443770241749e-06    3.05301199238091e-08    5.09856908230248e-10    7.82658817664416e-09
00.08    2.26147883411005e-06    4.44572657397184e-08    7.41972512217726e-10    1.13967076824148e-08
00.09    3.21021102037951e-06    6.31709072802527e-08    1.05356260212328e-09    1.61936851847653e-08
00.10    4.45591224962185e-06    8.77795914835165e-08    1.46287319104220e-09    2.25015956537993e-08
00.11    6.06034935175643e-06    1.19527947480319e-07    1.99032199445339e-09    3.06393624053175e-08
00.12    8.09175667917264e-06    1.59798279173452e-07    2.65850133529519e-09    4.09611584933472e-08
00.13    1.06248372496730e-05    2.10112831212190e-07    3.49218931297481e-09    5.38569786557996e-08
00.14    1.37407748355092e-05    2.72136523751130e-07    4.51836519954908e-09    6.97533257851341e-08
00.15    1.75272477587405e-05    3.47679966694906e-07    5.76622637318017e-09    8.91139689791281e-08
00.16    2.20784393781068e-05    4.38702684784783e-07    7.26720529155098e-09    1.12440750802370e-07
00.17    2.74950440093996e-05    5.47316499973044e-07    9.05498643127592e-09    1.40274438890732e-07
00.18    3.38842692665583e-05    6.75789100600349e-07    1.11655237100552e-08    1.73195628478468e-07
00.19    4.13598369602153e-05    8.26547851532896e-07    1.36370585208985e-08    2.11825705693178e-07
00.20    5.00419838482955e-05    1.00218387551878e-06    1.65101384873540e-08    2.56827879463754e-07
00.21    6.00574630763212e-05    1.20545647299285e-06    1.98276366012483e-08    3.08908291011523e-07
00.22    7.15395462462604e-05    1.43929785511881e-06    2.36347710718435e-08    3.68817205353018e-07
00.23    8.46280254142456e-05    1.70681822084876e-06    2.79791258810489e-08    4.37350291867333e-07
00.24    9.94692155110278e-05    2.01131112144107e-06    3.29106730342731e-08    5.15349998799865e-07
00.25    1.16215957636417e-04    2.35625917877071e-06    3.84817963621142e-08    6.03707024760024e-07
00.26    1.35027624628661e-04    2.74534023142814e-06    4.47473165594631e-08    7.03361892194493e-07
00.27    1.56070129530395e-04    3.18243397585459e-06    5.17645170606081e-08    8.15306624797956e-07
00.28    1.79515936584894e-04    3.67162921779618e-06    5.95931707774630e-08    9.40586533526736e-07
00.29    2.05544073026011e-04    4.21723168098670e-06    6.82955681833522e-08    1.08030211432817e-06
00.30    2.34340139878253e-04    4.82377229631513e-06    7.79365469505596e-08    1.23561106543502e-06
00.31    2.66096320895627e-04    5.49601583923698e-06    8.85835234790638e-08    1.40773042802555e-06
00.32    3.01011389369586e-04    6.23896975035271e-06    1.00306525183466e-07    1.59793885717022e-06
00.33    3.39290713503668e-04    7.05789318580742e-06    1.13178223483137e-07    1.80757903216638e-06
00.34    3.81146263090141e-04    7.95830654611809e-06    1.27273966294225e-07    2.03806021201297e-06
00.35    4.26796619032068e-04    8.94600176440772e-06    1.42671810353821e-07    2.29086095132799e-06
00.36    4.76466990578179e-04    1.00270538362495e-05    1.59452553719028e-07    2.56753199735182e-06
00.37    5.30389241415335e-04    1.12078336052596e-05    1.77699769266661e-07    2.86969937696789e-06
00.38    5.88801923886435e-04    1.24950215665944e-05    1.97499842063054e-07    3.19906769499334e-06
00.39    6.51950313605837e-04    1.38956223266717e-05    2.18942011337957e-07    3.55742363724553e-06
00.40    7.20086437098083e-04    1.54169792921170e-05    2.42118416516895e-07    3.94663968419597e-06
00.41    7.93469087196187e-04    1.70667896370063e-05    2.67124144515439e-07    4.36867803601581e-06
00.42    8.72363829731241e-04    1.88531198498822e-05    2.94057272764585e-07    4.82559477163704e-06
00.43    9.57043013206225e-04    2.07844223299779e-05    3.23018907398392e-07    5.31954426400384e-06
00.44    1.04778579447283e-03    2.28695535246350e-05    3.54113215073247e-07    5.85278388058729e-06
00.45    1.14487818778653e-03    2.51177938602871e-05    3.87447454629362e-07    6.42767899072575e-06
00.46    1.24861313387577e-03    2.75388696501045e-05    4.23132011539789e-07    7.04670830518326e-06
00.47    1.35929057515265e-03    3.01429767291799e-05    4.61280436097163e-07    7.71246956485912e-06
00.48    1.47721752050336e-03    3.29408053795744e-05    5.02009487334349e-07    8.42768560830910e-06
00.49    1.60270808900048e-03    3.59435659206547e-05    5.45439178293531e-07    9.19521084153148e-06
00.50    1.73608354033803e-03    3.91630149957149e-05    5.91692826823428e-07    1.00180381236537e-05
00.51    1.87767230166158e-03    4.26114829928535e-05    6.40897106256936e-07    1.08993060757994e-05
00.52    2.02781001397542e-03    4.63019036957967e-05    6.93182093904458e-07    1.18423068511489e-05
00.53    2.18683960296350e-03    5.02478470311931e-05    7.48681309519437e-07    1.28504944105251e-05
00.54    2.35511137122061e-03    5.44635547355432e-05    8.07531740224085e-07    1.39274933756335e-05
00.55    2.53298310123673e-03    5.89639786020076e-05    8.69873849950352e-07    1.50771085548813e-05
00.56    2.72082015847245e-03    6.37648204429566e-05    9.35851597899316e-07    1.63033351893338e-05
00.57    2.91899559220127e-03    6.88825741483652e-05    1.00561246136732e-06    1.76103698922355e-05
00.58    3.12789023245243e-03    7.43345706331219e-05    1.07930748663975e-06    1.90026223993598e-05
00.59    3.34789279180034e-03    8.01390264590959e-05    1.15709135720467e-06    2.04847280169063e-05
00.60    3.57939997749729e-03    8.63150966232578e-05    1.23912244202693e-06    2.20615609469402e-05
00.61    3.82281662102893e-03    9.28829314373016e-05    1.32556282448685e-06    2.37382486923724e-05
00.62    4.07855583625502e-03    9.98637379122056e-05    1.41657829884627e-06    2.55201876490959e-05
00.63    4.34703920061674e-03    1.07279846595209e-04    1.51233833319721e-06    2.74130602353050e-05
00.64    4.62869694773780e-03    1.15154783790585e-04    1.61301602400864e-06    2.94228532824680e-05
00.65    4.92396815732846e-03    1.23513348904834e-04    1.71878804859472e-06    3.15558774691762e-05
00.66    5.23330093696995e-03    1.32381694892147e-04    1.82983463371650e-06    3.38187875212934e-05
00.67    5.55715261108682e-03    1.41787412137214e-04    1.94633950094075e-06    3.62186032136369e-05
00.68    5.89598992678275e-03    1.51759616958740e-04    2.06848985255415e-06    3.87627319933580e-05
00.69    6.25028928051063e-03    1.62329049161792e-04    2.19647638186983e-06    4.14589942456697e-05
00.70    6.62053696635073e-03    1.73528181284230e-04    2.33049333568595e-06    4.43156520587163e-05
00.71    7.00722944091747e-03    1.85391341217697e-04    2.47073854147878e-06    4.73414415120541e-05
00.72    7.41087364026981e-03    1.97954846961278e-04    2.61741327821507e-06    5.05456078495630e-05
00.73    7.83198735969450e-03    2.11257150868134e-04    2.77072191988017e-06    5.39379426200345e-05
00.74    8.27109970626209e-03    2.25338993783504e-04    2.93087135627931e-06    5.75288225602812e-05
00.75    8.72875156690290e-03    2.40243568704791e-04    3.09807040974513e-06    6.13292506689350e-05
00.76    9.20549604385110e-03    2.56016698335619e-04    3.27252942504009e-06    6.53509009577746e-05
00.77    9.70189882008755e-03    2.72707028653538e-04    3.45446016223272e-06    6.96061681714279e-05
00.78    1.02185385091830e-02    2.90366243643771e-04    3.64407582426917e-06    7.41082237935562e-05
00.79    1.07560070732187e-02    3.09049304398511e-04    3.84159095749314e-06    7.88710785466495e-05
00.80    1.13149103899411e-02    3.28814713001078e-04    4.04722106480661e-06    8.39096509528356e-05
00.81    1.18958689756033e-02    3.49724800230250e-04    4.26118181679193e-06    8.92398410599005e-05
00.82    1.24995187741547e-02    3.71846036461864e-04    4.48368799679327e-06    9.48786095001651e-05
00.83    1.31265119693674e-02    3.95249368371668e-04    4.71495237937038e-06    1.00844063424744e-04
00.84    1.37775177906017e-02    4.20010592237534e-04    4.95518454611233e-06    1.07155552837188e-04
00.85    1.44532233932361e-02    4.46210777073991e-04    5.20458967289360e-06    1.13833780856438e-04
00.86    1.51543348749388e-02    4.73936748430176e-04    5.46336709212097e-06    1.20900930381868e-04
00.87    1.58815784704685e-02    5.03281639456632e-04    5.73170836248020e-06    1.28380807537021e-04
00.88    1.66357018470690e-02    5.34345507281023e-04    6.00979464350851e-06    1.36299000823641e-04
00.89    1.74174754209793e-02    5.67236016763992e-04    6.29779335534421e-06    1.44683056919080e-04
00.90    1.82276936595273e-02    6.02069202474541e-04    6.59585410814752e-06    1.53562676551144e-04
00.91    1.90671764382401e-02    6.38970331147764e-04    6.90410406832512e-06    1.62969938045086e-04
00.92    1.99367705824059e-02    6.78074892515165e-04    7.22264259965895e-06    1.72939556158622e-04
00.93    2.08373517528988e-02    7.19529748286728e-04    7.55153526204488e-06    1.83509183475137e-04
00.94    2.17698266822849e-02    7.63494458913732e-04    7.89080727034888e-06    1.94719758146722e-04
00.95    2.27351356198707e-02    8.10142811881059e-04    8.24043652337516e-06    2.06615901576884e-04
00.96    2.37342547892373e-02    8.59664590158998e-04    8.60034626801728e-06    2.19246375279251e-04
00.97    2.47681987500340e-02    9.12267646843114e-04    8.97039668406920e-06    2.32664615015076e-04
00.98    2.58380230434649e-02    9.68180381404151e-04    9.35037400667950e-06    2.46929371271866e-04
00.99    2.69448279418699e-02    1.02765469090298e-03    9.73997526257378e-06    2.62105481934334e-04
01.00    2.80897645083162e-02    1.09096936136371e-03    1.01387870540816e-05    2.78264774453493e-04
01.01    2.92740436483035e-02    1.15843358896823e-03    1.05462588420325e-05    2.95487023932990e-04
01.02    3.04989477105778e-02    1.23038993718342e-03    1.09616737622386e-05    3.13860786128751e-04
01.03    3.17658420253165e-02    1.30721563116881e-03    1.13841250239645e-05    3.33483812844137e-04
01.04    3.30761817107375e-02    1.38932100194668e-03    1.18125107765365e-05    3.54462722338591e-04
01.05    3.44315078245676e-02    1.47714450989935e-03    1.22455642329192e-05    3.76911749207891e-04
01.06    3.58334278969278e-02    1.57114538919504e-03    1.26819344779895e-05    4.00950817256454e-04
01.07    3.72835798741789e-02    1.67179744430593e-03    1.31203239262209e-05    4.26703836985861e-04
01.08    3.87835854203151e-02    1.77959000242048e-03    1.35596694488797e-05    4.54298798349823e-04
01.09    4.03350066334716e-02    1.89504291843262e-03    1.39993300423687e-05    4.83871483414240e-04
01.10    4.19393259287595e-02    2.01874000698351e-03    1.44392247905249e-05    5.15573983271810e-04
01.11    4.35979689662482e-02    2.15137835820330e-03    1.48798648998629e-05    5.49587391953451e-04
01.12    4.53123822162692e-02    2.29382064689792e-03    1.53222545669856e-05    5.86135320995181e-04
01.13    4.70841612309527e-02    2.44712723235951e-03    1.57676999959973e-05    6.25492142430268e-04
01.14    4.89152076510275e-02    2.61254006441395e-03    1.62176505213669e-05    6.67978574076161e-04
01.15    5.08078784910066e-02    2.79139640605208e-03    1.66737690231629e-05    7.13938766886470e-04
01.16    5.27650869255715e-02    2.98496964426121e-03    1.71384504506680e-05    7.63698110381767e-04
01.17    5.47903209371877e-02    3.19426402557441e-03    1.76159403014515e-05    8.17508785896347e-04
01.18    5.68875626052938e-02    3.41982149457713e-03    1.81140362905584e-05    8.75498419817800e-04
01.19    5.90611095746268e-02    3.66161962874391e-03    1.86461120640795e-05    9.37642777167413e-04
01.20    6.13153151860882e-02    3.91913834905682e-03    1.92329472470254e-05    1.00378318568716e-03
01.21    6.36542724096819e-02    4.19164337971721e-03    1.99036779325191e-05    1.07370161092657e-03
01.22    6.60814725621334e-02    4.47867891886565e-03    2.06951872281334e-05    1.14725164165218e-03
01.23    6.85994800531337e-02    4.78069279311677e-03    2.16494906147127e-05    1.22452527954528e-03
01.24    7.12096842125063e-02    5.09965348447587e-03    2.28091225785057e-05    1.30601836341159e-03
01.25    7.39122153667707e-02    5.43948085798401e-03    2.42111067818793e-05    1.39274726463707e-03
01.26    7.67061294978736e-02    5.80611771609617e-03    2.58806349341994e-05    1.48627062591675e-03
01.27    7.95899522827315e-02    6.20712466105609e-03    2.78259161603898e-05    1.58858431859565e-03
01.28    8.25626106385197e-02    6.65078019984800e-03    3.00356500584838e-05    1.70188401783554e-03
01.29    8.56246658805748e-02    7.14479288046002e-03    3.24801876567188e-05    1.82822299762330e-03
01.30    8.87796233620773e-02    7.69485519110236e-03    3.51167717460062e-05    1.96912562506591e-03
01.31    9.20349744727753e-02    8.30335918232577e-03    3.78985127776499e-05    2.12524145982193e-03
01.32    9.54025832453808e-02    8.96862594720987e-03    4.07862411022229e-05    2.29613389088464e-03
01.33    9.88980987176532e-02    9.68496036434310e-03    4.37623193000307e-05    2.48028680808307e-03
01.34    1.02539255928299e-01    1.04437290974956e-02    4.68459860079087e-05    2.67538285450937e-03
01.35    1.06343181040441e-01    1.12354893266210e-02    5.01106912906622e-05    2.87886136161180e-03
01.36    1.10323068755467e-01    1.20529957406586e-02    5.37048069616161e-05    3.08871056800122e-03
01.37    1.14484779810221e-01    1.28947190158499e-02    5.78775396628187e-05    3.30439652619518e-03
01.38    1.18823975157721e-01    1.37683564669777e-02    6.30113472232916e-05    3.52778998640562e-03
01.39    1.23324368750796e-01    1.46937362897650e-02    6.96603566186920e-05    3.76393107727978e-03
01.40    1.27957592005569e-01    1.57045313428058e-02    7.85912996709353e-05    4.02147556970098e-03
01.41    1.32685081454438e-01    1.68483136337345e-02    9.08199165910563e-05    4.31269791597348e-03
01.42    1.37462354769122e-01    1.81846851219118e-02    1.07632771720213e-04    4.65298239362171e-03
01.43    1.42246010675417e-01    1.97814845924965e-02    1.30583487265669e-04    5.05980656008512e-03
01.44    1.47003708180708e-01    2.17093495733502e-02    1.61454944374474e-04    5.55129886840371e-03
01.45    1.51727166108289e-01    2.40351587501503e-02    2.02185413047146e-04    6.14452071400357e-03
01.46    1.56447820036259e-01    2.68150564841343e-02    2.54765483375456e-04    6.85367100724398e-03
01.47    1.61254188756899e-01    3.00878648603688e-02    3.21120304726127e-04    7.68843544716756e-03
01.48    1.66309344402794e-01    3.38697586905719e-02    4.02992934218249e-04    8.65271218403654e-03
01.49    1.71866385511946e-01    3.81511916873679e-02    5.01835108858401e-04    9.74396175372310e-03
01.50    1.78279798784010e-01    4.28972782845611e-02    6.18691293697827e-04    1.09534737369542e-02
01.51    1.86011303448050e-01    4.80531252766576e-02    7.54037712804008e-04    1.22679163236491e-02
01.52    1.95630119811341e-01    5.35557653412567e-02    9.07525304468832e-04    1.36725923761147e-02
01.53    2.07808920999400e-01    5.93539722981050e-02    1.07759249566140e-03    1.51567629518255e-02
01.54    2.23316763493695e-01    6.54358270312607e-02    1.26097099153275e-03    1.67210683915182e-02
01.55    2.43007923666355e-01    7.18611148598254e-02    1.45219670159255e-03    1.83863561725455e-02
01.56    2.67801062611555e-01    7.87917108678262e-02    1.64332560938241e-03    2.02021382314207e-02
01.57    2.98638914579367e-01    8.65091212875893e-02    1.82409261783132e-03    2.22517105245633e-02
01.58    3.36418865060125e-01    9.54061316124565e-02    1.98269607708893e-03    2.46501834774401e-02
01.59    3.81892851836841e-01    1.05941100509138e-01    2.10723214630694e-03    2.75319185636408e-02
01.60    4.35550121296566e-01    1.18550055017050e-01    2.18759228212901e-03    3.10255994740851e-02
01.61    4.97511157141311e-01    1.33522887969960e-01    2.21748101658781e-03    3.52183737739538e-02
01.62    5.67464214187181e-01    1.50862994207698e-01    2.19622652108703e-03    4.01145034865410e-02
01.63    6.44659131498664e-01    1.70160463581145e-01    2.13028309198921e-03    4.55975175128279e-02
01.64    7.27939939000330e-01    1.90513658958140e-01    2.03464053239714e-03    5.14066507639419e-02
01.65    8.15765819326394e-01    2.10530671672156e-01    1.93449390691393e-03    5.71375106957302e-02
01.66    9.06162523575851e-01    2.28430816541993e-01    1.86724911526130e-03    6.22732336073145e-02
01.67    9.96576426012676e-01    2.42248300866958e-01    1.88422382340253e-03    6.62463277657920e-02
01.68    1.08366272755300e+00    2.50117472690912e-01    2.05052398816828e-03    6.85239328376271e-02
01.69    1.16310182447985e+00    2.50595135715551e-01    2.44106635058103e-03    6.87019285144091e-02
01.70    1.22957470241798e+00    2.42956758100603e-01    3.13116058301514e-03    6.65884203793779e-02
01.71    1.27702185525538e+00    2.27398750667123e-01    4.18175388694393e-03    6.22570163351863e-02
01.72    1.29925761784245e+00    2.05094892527002e-01    5.62205210157684e-03    5.60562707585671e-02
01.73    1.29091913604550e+00    1.78089617670322e-01    7.43470635845554e-03    4.85724680403686e-02
01.74    1.24861061737116e+00    1.49051824040185e-01    9.54960334891513e-03    4.05545831484814e-02
01.75    1.17198872372737e+00    1.20942720432635e-01    1.18504057362151e-02    3.28179834920164e-02
01.76    1.06447304045803e+00    9.66583750382824e-02    1.41935639245510e-02    2.61444950542657e-02
01.77    9.33307087673457e-01    7.86940732516053e-02    1.64344187726660e-02    2.11919816775668e-02
01.78    7.88855201793092e-01    6.88572368116926e-02    1.84519099773709e-02    1.84206643999659e-02
01.79    6.43250343884116e-01    6.80439751341497e-02    2.01641093061761e-02    1.80400455315439e-02
01.80    5.08709068070448e-01    7.60972865297082e-02    2.15309658257745e-02    1.99806223596749e-02
01.81    3.95908505241517e-01    9.17752438243982e-02    2.25459455648706e-02    2.38963173141484e-02
01.82    3.12745004414091e-01    1.12860442727319e-01    2.32219168203473e-02    2.92030445066900e-02
01.83    2.63615638393411e-01    1.36425958047150e-01    2.35772508175612e-02    3.51538342697771e-02
01.84    2.49181871339201e-01    1.59237884459470e-01    2.36262068470457e-02    4.09423121242934e-02
01.85    2.66478526785051e-01    1.78232552382138e-01    2.33749580892956e-02    4.58175867453202e-02
01.86    3.09252082719097e-01    1.90976183089276e-01    2.28226150614669e-02    4.91888356612767e-02
01.87    3.68512389869978e-01    1.96010985144160e-01    2.19658129886309e-02    5.06995082973329e-02
01.88    4.33378349178263e-01    1.93018033894623e-01    2.08054074466176e-02    5.02586531660959e-02
01.89    4.92308077416240e-01    1.82774252751114e-01    1.93538745159520e-02    4.80275211512970e-02
01.90    5.34691293644617e-01    1.66930988526548e-01    1.76418197671327e-02    4.43694892447111e-02
01.91    5.52583593679203e-01    1.47678212202980e-01    1.57217954846199e-02    3.97775232371820e-02
01.92    5.42181456974870e-01    1.27372583511652e-01    1.36678851990066e-02    3.47948878556568e-02
01.93    5.04590863635227e-01    1.08200935097429e-01    1.15704930519670e-02    2.99426067305160e-02
01.94    4.45593654074787e-01    9.19308667542957e-02    9.52724667085357e-03    2.56631476072550e-02
01.95    3.74422735011988e-01    7.97752165157862e-02    7.63226634806451e-03    2.22855054709464e-02
