# RiF 1e-20 (cm^2/W)
# 1w(eV) RpP                     RpS                     RsP                     RsS
00.01    8.52701259612324e-09    4.65497133827436e-09    2.61401599389566e-09    2.16329581886279e-09
00.02    1.02740049653773e-08    5.61378196474890e-09    3.15223831159186e-09    2.60889409009159e-09
00.03    1.39378559840349e-08    7.62617110613454e-09    4.28181922555894e-09    3.54413685577691e-09
00.04    1.98572949052816e-08    1.08814186695531e-08    6.10887546010404e-09    5.05699834530499e-09
00.05    2.85380244389165e-08    1.56628676243908e-08    8.79222781086735e-09    7.27917329983590e-09
00.06    4.06501476667618e-08    2.23473893403218e-08    1.25430652401421e-08    1.03858311961033e-08
00.07    5.70251661706718e-08    3.14048994937906e-08    1.76246238272828e-08    1.45953934780169e-08
00.08    7.86527739151946e-08    4.33980457369896e-08    2.43519504549328e-08    2.01693920352440e-08
00.09    1.06677645809811e-07    5.89821696027596e-08    3.30918070749214e-08    2.74124557020905e-08
00.10    1.42396322526980e-07    7.89056015177337e-08    4.42627481667941e-08    3.66724515971437e-08
00.11    1.87254226739906e-07    1.04010307582928e-07    5.83353817508535e-08    4.83407914660592e-08
00.12    2.42842799813130e-07    1.35232878460264e-07    7.58328072417761e-08    6.28528972309824e-08
00.13    3.10896678869806e-07    1.73605830918401e-07    9.73312132474484e-08    8.06888136078375e-08
00.14    3.93290868018129e-07    2.20259188365100e-07    1.23460614781072e-07    1.02373950245163e-07
00.15    4.92037819974488e-07    2.76422306573706e-07    1.54905709065348e-07    1.28479940507239e-07
00.16    6.09284387981098e-07    3.43425927153421e-07    1.92406839888151e-07    1.59625605950414e-07
00.17    7.47308605464727e-07    4.22704438839003e-07    2.36761055394511e-07    1.96478019286065e-07
00.18    9.08516273866215e-07    5.15798347204262e-07    2.88823260102800e-07    2.39753665365935e-07
00.19    1.09543735998581e-06    6.24356949835961e-07    3.49507454258277e-07    2.90219698526788e-07
00.20    1.31072218017594e-06    7.50141228942182e-07    4.19788066754436e-07    3.48695302008902e-07
00.21    1.55713738510550e-06    8.95026956210372e-07    5.00701379070141e-07    4.16053148270656e-07
00.22    1.83756175023574e-06    1.06100803843943e-06    5.93347043000124e-07    4.93220968520430e-07
00.23    2.15498174445732e-06    1.25020008988477e-06    6.98889696474328e-07    5.81183233772609e-07
00.24    2.51248693617279e-06    1.46484427250581e-06    8.18560679937460e-07    6.80982953522839e-07
00.25    2.91326515857291e-06    1.70731137115943e-06    9.53659856554886e-07    7.93723595832159e-07
00.26    3.36059750869291e-06    1.98010618009220e-06    1.10555754149946e-06    9.20571138387977e-07
00.27    3.85785312060591e-06    2.28587213543788e-06    1.27569653934212e-06    1.06275625171014e-06
00.28    4.40848374191948e-06    2.62739627629400e-06    1.46559429944578e-06    1.22157662947990e-06
00.29    5.01601809410815e-06    3.00761449915587e-06    1.67684518672033e-06    1.39839946629573e-06
00.30    5.68405606814238e-06    3.42961715467554e-06    1.91112287272516e-06    1.59466409896501e-06
00.31    6.41626267674647e-06    3.89665497972172e-06    2.17018284960445e-06    1.81188481521102e-06
00.32    7.21636185732100e-06    4.41214541420928e-06    2.45586505735982e-06    2.05165383882630e-06
00.33    8.08813008058578e-06    4.97967931880084e-06    2.77009665960746e-06    2.31564450950130e-06
00.34    9.03538982762666e-06    5.60302811934905e-06    3.11489494245585e-06    2.60561465703873e-06
00.35    1.00620028795198e-05    6.28615142507061e-06    3.49237036276713e-06    2.92341019311878e-06
00.36    1.11718634907512e-05    7.03320513205255e-06    3.90472975262237e-06    3.27096892454824e-06
00.37    1.23688914177281e-05    7.84855006475519e-06    4.35427968753165e-06    3.65032461255334e-06
00.38    1.36570247781773e-05    8.73676111343382e-06    4.84343002513382e-06    4.06361128133662e-06
00.39    1.50402127445065e-05    9.70263698593880e-06    5.37469761572532e-06    4.51306779785774e-06
00.40    1.65224080667962e-05    1.07512105194811e-05    5.95071020045635e-06    5.00104273728875e-06
00.41    1.81075594456164e-05    1.18877596356373e-05    6.57421049986233e-06    5.52999955048810e-06
00.42    1.97996036968293e-05    1.31178189767109e-05    7.24806046743297e-06    6.10252205557405e-06
00.43    2.16024578703787e-05    1.44471922524414e-05    7.97524575805533e-06    6.72132027741219e-06
00.44    2.35200112243346e-05    1.58819653991149e-05    8.75888036019345e-06    7.38923667000543e-06
00.45    2.55561171172952e-05    1.74285205454467e-05    9.60221144654561e-06    8.10925273943834e-06
00.46    2.77145848808914e-05    1.90935509302587e-05    1.05086244083434e-05    8.88449611521594e-06
00.47    2.99991716148967e-05    2.08840767518704e-05    1.14816481288450e-05    9.71824808398209e-06
00.48    3.24135739463578e-05    2.28074621173581e-05    1.25249604813463e-05    1.06139516296358e-05
00.49    3.49614197104722e-05    2.48714330505494e-05    1.36423941094737e-05    1.15752200014559e-05
00.50    3.76462596740378e-05    2.70840967303588e-05    1.48379424578186e-05    1.26058458391743e-05
00.51    4.04715590774330e-05    2.94539620371443e-05    1.61157660763361e-05    1.37098109267658e-05
00.52    4.34406893658112e-05    3.19899612719917e-05    1.74801992869423e-05    1.48912965262916e-05
00.53    4.65569197190843e-05    3.47014736365485e-05    1.89357569936580e-05    1.61546944936003e-05
00.54    4.98234088430494e-05    3.75983499930069e-05    2.04871419293839e-05    1.75046190510510e-05
00.55    5.32431967157419e-05    4.06909397103705e-05    2.21392520862744e-05    1.89459194720541e-05
00.56    5.68191965776717e-05    4.39901191829397e-05    2.38971884466037e-05    2.04836935968660e-05
00.57    6.05541870260832e-05    4.75073225634648e-05    2.57662630210002e-05    2.21233023490506e-05
00.58    6.44508042394326e-05    5.12545745633779e-05    2.77520072514726e-05    2.38703853204524e-05
00.59    6.85115345955557e-05    5.52445256675292e-05    2.98601805578005e-05    2.57308774341019e-05
00.60    7.27387072184382e-05    5.94904899989903e-05    3.20967793157712e-05    2.77110270039191e-05
00.61    7.71344871181108e-05    6.40064855139624e-05    3.44680462151423e-05    2.98174149901857e-05
00.62    8.17008683066546e-05    6.88072774900885e-05    3.69804799028189e-05    3.20569758591724e-05
00.63    8.64396678413966e-05    7.39084250627043e-05    3.96408450033273e-05    3.44370199718073e-05
00.64    9.13525197446032e-05    7.93263312330157e-05    4.24561825465831e-05    3.69652576478973e-05
00.65    9.64408704510899e-05    8.50782970828063e-05    4.54338207203145e-05    3.96498250952151e-05
00.66    1.01705974681209e-04    9.11825802360811e-05    4.85813856793647e-05    4.24993122208800e-05
00.67    1.07148892311226e-04    9.76584579863495e-05    5.19068127008384e-05    4.55227924998682e-05
00.68    1.12770486058811e-04    1.04526295505977e-04    5.54183573757523e-05    4.87298551659417e-05
00.69    1.18571420061245e-04    1.11807619620040e-04    5.91246070250003e-05    5.21306400721360e-05
00.70    1.24552159261186e-04    1.19525198458458e-04    6.30344922315210e-05    5.57358754848143e-05
00.71    1.30712969479548e-04    1.27703127394873e-04    6.71572988183789e-05    5.95569192440489e-05
00.72    1.37053918435988e-04    1.36366922038205e-04    7.15026797922488e-05    6.36058035822104e-05
00.73    1.43574878920265e-04    1.45543619885683e-04    7.60806675044444e-05    6.78952842326095e-05
00.74    1.50275534117427e-04    1.55261890316398e-04    8.09016855603373e-05    7.24388935704147e-05
00.75    1.57155385080992e-04    1.65552154556147e-04    8.59765605145363e-05    7.72509985685130e-05
00.76    1.64213762629412e-04    1.76446717051543e-04    9.13165325634598e-05    8.23468635733186e-05
00.77    1.71449841847734e-04    1.87979908612346e-04    9.69332656306605e-05    8.77427188528429e-05
00.78    1.78862659008169e-04    2.00188242806189e-04    1.02838856317287e-04    9.34558353293575e-05
00.79    1.86451133078505e-04    2.13110588256081e-04    1.09045841204695e-04    9.95046068911691e-05
00.80    1.94214088889456e-04    2.26788357242992e-04    1.15567202617816e-04    1.05908641045179e-04
00.81    2.02150286443818e-04    2.41265714634978e-04    1.22416371879834e-04    1.12688859469058e-04
00.82    2.10258455117736e-04    2.56589808409350e-04    1.29607229299150e-04    1.19867609200427e-04
00.83    2.18537338390071e-04    2.72811025502537e-04    1.37154099922489e-04    1.27468786065918e-04
00.84    2.26985749256625e-04    2.89983276681136e-04    1.45071743576072e-04    1.35517972092527e-04
00.85    2.35602639150150e-04    3.08164313016757e-04    1.53375337895527e-04    1.44042588031399e-04
00.86    2.44387183720990e-04    3.27416080338580e-04    1.62080452208321e-04    1.53072064282461e-04
00.87    2.53338884429684e-04    3.47805114795046e-04    1.71203009637443e-04    1.62638031689182e-04
00.88    2.62457690978218e-04    3.69402987130429e-04    1.80759234840873e-04    1.72774536284682e-04
00.89    2.71744146330201e-04    3.92286803953898e-04    1.90765582411203e-04    1.83518281759887e-04
00.90    2.81199558111341e-04    4.16539778482278e-04    2.01238641916868e-04    1.94908905954383e-04
00.91    2.90826201745608e-04    4.42251886521264e-04    2.12195013485102e-04    2.06989298133653e-04
00.92    3.00627554332974e-04    4.69520620488147e-04    2.23651150739472e-04    2.19805963727823e-04
00.93    3.10608559741600e-04    4.98451854609093e-04    2.35623167083313e-04    2.33409441919026e-04
00.94    3.20775918978226e-04    5.29160834637193e-04    2.48126603329061e-04    2.47854782929726e-04
00.95    3.31138403248066e-04    5.61773312940217e-04    2.61176154530581e-04    2.63202095570976e-04
00.96    3.41707182677996e-04    5.96426867144245e-04    2.74785352363725e-04    2.79517184953149e-04
00.97    3.52496176315507e-04    6.33272450421834e-04    2.88966197849131e-04    2.96872304708612e-04
00.98    3.63522430325408e-04    6.72476219198750e-04    3.03728735183500e-04    3.15347048816707e-04
00.99    3.74806536431350e-04    7.14221615650245e-04    3.19080555336489e-04    3.35029375300415e-04
01.00    3.86373082955077e-04    7.58711562952486e-04    3.35026221833961e-04    3.56016695791166e-04
01.01    3.98251065184995e-04    8.06170435781079e-04    3.51566649740868e-04    3.78416873156689e-04
01.02    4.10474070172542e-04    8.56845318408942e-04    3.68698535796894e-04    4.02348887737725e-04
01.03    4.23079921117360e-04    9.11006063087660e-04    3.86414040833261e-04    4.27942931893699e-04
01.04    4.36109375780811e-04    9.68943924160387e-04    4.04701014835145e-04    4.55339808974595e-04
01.05    4.49603498195002e-04    1.03096918955449e-03    4.23544093357513e-04    4.84689821687941e-04
01.06    4.63599501507519e-04    1.09740919129805e-03    4.42926947145138e-04    5.16151795256406e-04
01.07    4.78125221275432e-04    1.16860911289612e-03    4.62835809478667e-04    5.49893384433072e-04
01.08    4.93192939327235e-04    1.24493853544350e-03    4.83264101639992e-04    5.86094075022304e-04
01.09    5.08793894344091e-04    1.32680590344701e-03    5.04217584449395e-04    6.24951938043362e-04
01.10    5.24895216739207e-04    1.41468047750894e-03    5.25719144958788e-04    6.66693950622614e-04
01.11    5.41440888439156e-04    1.50911708226547e-03    5.47812364223377e-04    7.11587654746169e-04
01.12    5.58357437597003e-04    1.61077423595453e-03    5.70563592881807e-04    7.59949650279450e-04
01.13    5.75563449220675e-04    1.72041317276912e-03    5.94063445142434e-04    8.12144927841592e-04
01.14    5.92979873718651e-04    1.83886620796070e-03    6.18430288266450e-04    8.68571476136774e-04
01.15    6.10536149286771e-04    1.96696947479612e-03    6.43820068745591e-04    9.29627752999941e-04
01.16    6.28166062870001e-04    2.10546719358201e-03    6.70447816061954e-04    9.95666452651238e-04
01.17    6.45787874318231e-04    2.25490973188107e-03    6.98625424092590e-04    1.06694530542826e-03
01.18    6.63265964365026e-04    2.41558083090630e-03    7.28817196834619e-04    1.14359202498604e-03
01.19    6.80356024678758e-04    2.58749461504629e-03    7.61709177393460e-04    1.22560311315434e-03
01.20    6.96641731133364e-04    2.77049561602974e-03    7.98281085345152e-04    1.31289271843522e-03
01.21    7.11476724023420e-04    2.96447354687569e-03    8.39862241373780e-04    1.40539738749123e-03
01.22    7.23950144567044e-04    3.16967221326779e-03    8.88147434418626e-04    1.50322686321098e-03
01.23    7.32895208947879e-04    3.38703608231599e-03    9.45148051312593e-04    1.60683361411835e-03
01.24    7.36957066884139e-04    3.61850908404266e-03    1.01306028225180e-03    1.71715957554230e-03
01.25    7.34728136703059e-04    3.86718852769108e-03    1.09404690868349e-03    1.83571266158843e-03
01.26    7.24947242676421e-04    4.13725011643006e-03    1.18995121758735e-03    1.96453170924675e-03
01.27    7.06745660285702e-04    4.43359967029247e-03    1.30198825318973e-03    2.10601760129731e-03
01.28    6.79912624905119e-04    4.76126804068167e-03    1.43048536984031e-03    2.26263789066176e-03
01.29    6.45149586240980e-04    5.12463613085639e-03    1.57476502795261e-03    2.43654670350215e-03
01.30    6.04290460054910e-04    5.52664116554473e-03    1.73327249548560e-03    2.62919341784925e-03
01.31    5.60487730127407e-04    5.96815747403814e-03    1.90404688332987e-03    2.84101471464293e-03
01.32    5.18402897921132e-04    6.44775203050993e-03    2.08561680933162e-03    3.07130858811604e-03
01.33    4.84491109506292e-04    6.96197978143713e-03    2.27837432184223e-03    3.31837213522330e-03
01.34    4.67525036313775e-04    7.50630726328661e-03    2.48644468614656e-03    3.57994759011740e-03
01.35    4.79555303728708e-04    8.07664519191129e-03    2.72002965012652e-03    3.85396806300692e-03
01.36    5.37552195890514e-04    8.67134879012229e-03    2.99816440322661e-03    4.13953414578563e-03
01.37    6.66014154758410e-04    9.29343088227805e-03    3.35179986832678e-03    4.43799617819703e-03
01.38    9.00851288821344e-04    9.95265021813488e-03    3.82709852164377e-03    4.75397586248550e-03
01.39    1.29483779946286e-03    1.06671044325289e-02    4.48880354779052e-03    5.09614415206421e-03
01.40    1.92492509904532e-03    1.14639836715762e-02    5.42351715259503e-03    5.47758536348361e-03
01.41    2.90181935531342e-03    1.23792253223345e-02    6.74274573663776e-03    5.91561962650661e-03
01.42    4.38235466022166e-03    1.34559420981310e-02    8.58560826233670e-03    6.43102314113526e-03
01.43    6.58503457164981e-03    1.47416605965992e-02    1.11210446115095e-02    7.04667069874528e-03
01.44    9.80858862771051e-03    1.62845840465258e-02    1.45491847194731e-02    7.78571566192660e-03
01.45    1.44525640618182e-02    1.81292316862626e-02    1.91013232105209e-02    8.66949158102070e-03
01.46    2.10377598846720e-02    2.03119184686797e-02    2.50376572296022e-02    9.71537124015483e-03
01.47    3.02225593137706e-02    2.28566946996681e-02    3.26415791673640e-02    1.09348912865482e-02
01.48    4.28090142531681e-02    2.57725182734880e-02    4.22089279717443e-02    1.23325206631279e-02
01.49    5.97300950321660e-02    2.90526294478635e-02    5.40299869568864e-02    1.39055348622146e-02
01.50    8.20084242314417e-02    3.26774372573656e-02    6.83618253310621e-02    1.56456361098003e-02
01.51    1.10682014471637e-01    3.66222560155946e-02    8.53913199866390e-02    1.75430227302851e-02
01.52    1.46700410474925e-01    4.08706771990466e-02    1.05193054470962e-01    1.95933548061346e-02
01.53    1.90791815803666e-01    4.54338031561393e-02    1.27684070772541e-01    2.18078093470464e-02
01.54    2.43312403017199e-01    5.03742284272548e-02    1.52579648870683e-01    2.42257541572260e-02
01.55    3.04141920046890e-01    5.58313487051579e-02    1.79376213132368e-01    2.69283492739381e-02
01.56    3.72712346780023e-01    6.20414126139997e-02    2.07396693935481e-01    3.00496424234757e-02
01.57    4.48224062409810e-01    6.93431616702844e-02    2.35914849530521e-01    3.37801921693987e-02
01.58    5.30122953382931e-01    7.81598998404821e-02    2.64378155187421e-01    3.83580003456309e-02
01.59    6.18980607025433e-01    8.89509534007819e-02    2.92782337056902e-01    4.40424751614484e-02
01.60    7.17872335528827e-01    1.02130594195660e-01    3.22237540798842e-01    5.10698854215448e-02
01.61    8.34150203913127e-01    1.17960685715769e-01    3.55686392274319e-01    5.95934231989255e-02
01.62    9.81308917126371e-01    1.36432805975348e-01    3.98658095194942e-01    6.96165904809663e-02
01.63    1.18047289625640e+00    1.57163658330849e-01    4.59883697187377e-01    8.09335388786087e-02
01.64    1.46084238112546e+00    1.79331632165853e-01    5.51523280627196e-01    9.30925866874446e-02
01.65    1.85831628279075e+00    2.01680424448639e-01    6.88697997529555e-01    1.05398058366040e-01
01.66    2.41163179201046e+00    2.22606382650479e-01    8.88050841679824e-01    1.16960008508818e-01
01.67    3.15581394530387e+00    2.40330344016536e-01    1.16521864141311e+00    1.26791838950516e-01
01.68    4.11349040145899e+00    2.53135568892193e-01    1.53138319041737e+00    1.33944484618415e-01
01.69    5.28555750792469e+00    2.59635696668198e-01    1.98943941366116e+00    1.37655725953592e-01
01.70    6.64350115671421e+00    2.59025201947961e-01    2.53067058807301e+00    1.37487139792902e-01
01.71    8.12600152966314e+00    2.51263245034260e-01    3.13300160307199e+00    1.33421239443324e-01
01.72    9.64196667512168e+00    2.37151690331834e-01    3.76176807194226e+00    1.25897962244027e-01
01.73    1.10807646117864e+01    2.18287364892491e-01    4.37343345405612e+00    1.15781238650417e-01
01.74    1.23284275546748e+01    1.96892061418424e-01    4.92189081368693e+00    1.04259764894929e-01
01.75    1.32865955233243e+01    1.75545333174345e-01    5.36613390193578e+00    9.26978746784974e-02
01.76    1.38897050296486e+01    1.56859997306891e-01    5.67748791027671e+00    8.24600095242496e-02
01.77    1.41160002963416e+01    1.43146276233775e-01    5.84452340085502e+00    7.47347688034415e-02
01.78    1.39894764840592e+01    1.36109034497100e-01    5.87433169095895e+00    7.03826597102672e-02
01.79    1.35723879479759e+01    1.36616656915200e-01    5.78985516898731e+00    6.98270577279877e-02
01.80    1.29505747912612e+01    1.44571737918599e-01    5.62407929427374e+00    7.30018371489264e-02
01.81    1.22156555809579e+01    1.58903406495206e-01    5.41270621229591e+00    7.93622769489805e-02
01.82    1.14485479209119e+01    1.77688365753238e-01    5.18718212899796e+00    8.79583717776263e-02
01.83    1.07078279506378e+01    1.98391961248153e-01    4.96961821500855e+00    9.75617851165534e-02
01.84    1.00246439623268e+01    2.18202306647864e-01    4.77042669622233e+00    1.06829972803177e-01
01.85    9.40399186474588e+00    2.34412529837674e-01    4.58869501328405e+00    1.14484697916992e-01
01.86    8.83075424704036e+00    2.44793468597324e-01    4.41470754704490e+00    1.19478954970463e-01
01.87    8.27828302299441e+00    2.47896149755531e-01    4.23372642977066e+00    1.21127426600631e-01
01.88    7.71738971404630e+00    2.43232474471863e-01    4.03013461568679e+00    1.19181105932176e-01
01.89    7.12408639481032e+00    2.31304015077880e-01    3.79119725816341e+00    1.13836310777374e-01
01.90    6.48500604590335e+00    2.13478224227540e-01    3.50989538170683e+00    1.05680030511975e-01
01.91    5.80001510627511e+00    1.91741584136537e-01    3.18649921670803e+00    9.55847849665039e-02
01.92    5.08204045317226e+00    1.68382312864973e-01    2.82876345506790e+00    8.45743093935531e-02
01.93    4.35451412886227e+00    1.45665520184536e-01    2.45082268346025e+00    7.36847573360719e-02
01.94    3.64717201530648e+00    1.25560192692657e-01    2.07107002255170e+00    6.38448025853146e-02
01.95    2.99126162279496e+00    1.09560466209093e-01    1.70952054859020e+00    5.57919891449560e-02
