# RiF 1e-20 (cm^2/W)
# 1w(eV) RpP                     RpS                     RsP                     RsS
00.01    8.33372968100842e-05    7.87536800024280e-08    3.17667279427961e-08    2.62893755046336e-08
00.02    1.00482880232458e-04    9.49734699017728e-08    3.83110157465548e-08    3.17074422695022e-08
00.03    1.36462722808924e-04    1.29015693333541e-07    5.20467503775073e-08    4.30800245591158e-08
00.04    1.94648426016607e-04    1.84081229335296e-07    7.42665618701772e-08    6.14787540430438e-08
00.05    2.80084162696761e-04    2.64961484266560e-07    1.06905602626956e-07    8.85082641181388e-08
00.06    3.99473635556439e-04    3.78028890852515e-07    1.52538079481492e-07    1.26303713210101e-07
00.07    5.61166728847293e-04    5.31228563167122e-07    2.14374168697821e-07    1.77528756167150e-07
00.08    7.75148108185128e-04    7.34072516192869e-07    2.96258163445657e-07    2.45374672077878e-07
00.09    1.05302946182665e-03    9.97638492589736e-07    4.02668531669063e-07    3.33561216764082e-07
00.10    1.40804647814158e-03    1.33457459361158e-06    5.38720281866692e-07    4.46339527308987e-07
00.11    1.85506088475830e-03    1.75910950364488e-06    7.10169766918219e-07    5.88497206292007e-07
00.12    2.41056721214165e-03    2.28706854909631e-06    9.23421847260446e-07    7.65365518313442e-07
00.13    3.09270390004382e-03    2.93589473950154e-06    1.18553921176057e-06    9.82828555224682e-07
00.14    3.92126784972533e-03    3.72467474429850e-06    1.50425361699196e-06    1.24733416611044e-06
00.15    4.91773194941346e-03    4.67416819001270e-06    1.88797879490602e-06    1.56590649943370e-06
00.16    6.10526502625338e-03    5.80684132101901e-06    2.34582491552252e-06    1.94616003224546e-06
00.17    7.50875381488080e-03    7.14690334533376e-06    2.88761443398427e-06    2.39631501154741e-06
00.18    9.15482684118918e-03    8.72034644281943e-06    3.52389933350262e-06    2.92521430504257e-06
00.19    1.10718799447896e-02    1.05549890002023e-05    4.26597970134162e-06    3.54234166054088e-06
00.20    1.32901035842151e-02    1.26805224807338e-05    5.12592371042537e-06    4.25784144269455e-06
00.21    1.58415116853180e-02    1.51285615255549e-05    6.11658900354469e-06    5.08253985820232e-06
00.22    1.87599721169467e-02    1.79326989513630e-05    7.25164551229063e-06    6.02796777240556e-06
00.23    2.20812389300406e-02    2.11285633787563e-05    8.54559978774912e-06    7.10638516837716e-06
00.24    2.58429860316526e-02    2.47538835419321e-05    1.00138208783812e-05    8.33080733053237e-06
00.25    3.00848427702570e-02    2.88485533503645e-05    1.16725678203868e-05    9.71503282356309e-06
00.26    3.48484309916948e-02    3.34547068729071e-05    1.35390188108054e-05    1.12736733928160e-05
00.27    4.01774040148103e-02    3.86167919550954e-05    1.56313020773829e-05    1.30221858263144e-05
00.28    4.61174871776649e-02    4.43816523575730e-05    1.79685285858853e-05    1.49769059832186e-05
00.29    5.27165204519855e-02    5.07986104059588e-05    2.05708265685727e-05    1.71550850108211e-05
00.30    6.00245026219266e-02    5.79195556356503e-05    2.34593779589323e-05    1.95749279743452e-05
00.31    6.80936373729523e-02    6.57990347816749e-05    2.66564567935452e-05    2.22556349786785e-05
00.32    7.69783812420493e-02    7.44943500292761e-05    3.01854694914258e-05    2.52174449247657e-05
00.33    8.67354931125357e-02    8.40656622025275e-05    3.40709974435345e-05    2.84816821311285e-05
00.34    9.74240855923789e-02    9.45761037624252e-05    3.83388416568604e-05    3.20708058761367e-05
00.35    1.09105677769654e-01    1.06091901532028e-04    4.30160697676317e-05    3.60084631488173e-05
00.36    1.21844249818937e-01    1.18682510587726e-04    4.81310655719065e-05    4.03195447213558e-05
00.37    1.35706298950655e-01    1.32420759073237e-04    5.37135811502668e-05    4.50302448464876e-05
00.38    1.50760897017142e-01    1.47382995748314e-04    5.97947917656973e-05    5.01681247132813e-05
00.39    1.67079749913865e-01    1.63649253070603e-04    6.64073535580306e-05    5.57621799554151e-05
00.40    1.84737258457673e-01    1.81303412024273e-04    7.35854642985368e-05    6.18429124637535e-05
00.41    2.03810580921891e-01    2.00433376880549e-04    8.13649272710450e-05    6.84424067525493e-05
00.42    2.24379697460485e-01    2.21131262118927e-04    8.97832180456099e-05    7.55944112466025e-05
00.43    2.46527475674396e-01    2.43493585386842e-04    9.88795547418754e-05    8.33344247837477e-05
00.44    2.70339738007269e-01    2.67621476883307e-04    1.08694971229178e-04    9.16997888729903e-05
00.45    2.95905330681223e-01    2.93620893833297e-04    1.19272393962928e-04    1.00729785964743e-04
00.46    3.23316193536627e-01    3.21602853832795e-04    1.30656722060939e-04    1.10465744403559e-04
00.47    3.52667431863682e-01    3.51683673885103e-04    1.42894911371543e-04    1.20951150317431e-04
00.48    3.84057388910512e-01    3.83985232098739e-04    1.56036062427073e-04    1.32231767108078e-04
00.49    4.17587720408955e-01    4.18635237657944e-04    1.70131513035164e-04    1.44355762877032e-04
00.50    4.53363469397827e-01    4.55767528724835e-04    1.85234935246073e-04    1.57373846326336e-04
00.51    4.91493142496578e-01    4.95522384621553e-04    2.01402437070768e-04    1.71339412163967e-04
00.52    5.32088786478588e-01    5.38046862400446e-04    2.18692670106714e-04    1.86308695474388e-04
00.53    5.75266064973785e-01    5.83495160409192e-04    2.37166940471674e-04    2.02340937845585e-04
00.54    6.21144333451368e-01    6.32029010209113e-04    2.56889326737108e-04    2.19498563687180e-04
00.55    6.69846717711946e-01    6.83818102949733e-04    2.77926801834225e-04    2.37847370241284e-04
00.56    7.21500182952925e-01    7.39040551072586e-04    3.00349360350114e-04    2.57456730278894e-04
00.57    7.76235612875591e-01    7.97883378022483e-04    3.24230151533588e-04    2.78399809947840e-04
00.58    8.34187876097278e-01    8.60543052161008e-04    3.49645618730602e-04    3.00753802731475e-04
00.59    8.95495903778952e-01    9.27226026166217e-04    3.76675642571291e-04    3.24600179910424e-04
00.60    9.60302759266061e-01    9.98149333278722e-04    4.05403691669046e-04    3.50024961817249e-04
00.61    1.02875570281463e+00    1.07354117355399e-03    4.35916980391936e-04    3.77119007646108e-04
00.62    1.10100626775679e+00    1.15364155963565e-03    4.68306632485994e-04    4.05978329263406e-04
00.63    1.17721031131912e+00    1.23870298418619e-03    5.02667851737960e-04    4.36704428248644e-04
00.64    1.25752808245795e+00    1.32899114750716e-03    5.39100100495816e-04    4.69404658657562e-04
00.65    1.34212425970852e+00    1.42478576781694e-03    5.77707284710850e-04    5.04192617961180e-04
00.66    1.43116799320943e+00    1.52638146699750e-03    6.18597942662827e-04    5.41188567240721e-04
00.67    1.52483293233462e+00    1.63408875891715e-03    6.61885440911954e-04    5.80519883003699e-04
00.68    1.62329724108081e+00    1.74823513422809e-03    7.07688173969685e-04    6.22321544873497e-04
00.69    1.72674361636534e+00    1.86916622202634e-03    7.56129770187745e-04    6.66736664128883e-04
00.70    1.83535928795379e+00    1.99724703838715e-03    8.07339302513838e-04    7.13917057024630e-04
00.71    1.94933601636332e+00    2.13286329633086e-03    8.61451508410907e-04    7.64023869013946e-04
00.72    2.06887008046389e+00    2.27642277708399e-03    9.18607013208272e-04    8.17228254804464e-04
00.73    2.19416224582131e+00    2.42835681623216e-03    9.78952559453171e-04    8.73712122495987e-04
00.74    2.32541770064251e+00    2.58912188309409e-03    1.04264123703727e-03    9.33668940019546e-04
00.75    2.46284597249110e+00    2.75920129989801e-03    1.10983271421258e-03    9.97304614659299e-04
00.76    2.60666079236828e+00    2.93910715861550e-03    1.18069345980259e-03    1.06483844739036e-03
00.77    2.75707993705566e+00    3.12938240339635e-03    1.25539696127773e-03    1.13650417517754e-03
00.78    2.91432503102886e+00    3.33060316223737e-03    1.33412393279307e-03    1.21255110892161e-03
00.79    3.07862132554466e+00    3.54338132370483e-03    1.41706250526709e-03    1.29324538596679e-03
00.80    3.25019743007328e+00    3.76836738603777e-03    1.50440840097055e-03    1.37887134983026e-03
00.81    3.42928500507899e+00    4.00625361905972e-03    1.59636507848940e-03    1.46973307868970e-03
00.82    3.61611839070191e+00    4.25777752744281e-03    1.69314383830293e-03    1.56615607503505e-03
00.83    3.81093411842128e+00    4.52372568677593e-03    1.79496387556496e-03    1.66848914016176e-03
00.84    4.01397030045644e+00    4.80493793929435e-03    1.90205225974009e-03    1.77710645950539e-03
00.85    4.22546586487790e+00    5.10231202133844e-03    2.01464382315223e-03    1.89240991719689e-03
00.86    4.44565960317589e+00    5.41680869959184e-03    2.13298092934742e-03    2.01483168819648e-03
00.87    4.67478902647748e+00    5.74945747785550e-03    2.25731308497393e-03    2.14483713204532e-03
00.88    4.91308901979940e+00    6.10136302055862e-03    2.38789635771227e-03    2.28292804705296e-03
00.89    5.16079026727994e+00    6.47371243778585e-03    2.52499253240189e-03    2.42964634254473e-03
00.90    5.41811742381532e+00    6.86778360444262e-03    2.66886794670364e-03    2.58557821983726e-03
00.91    5.68528700299117e+00    7.28495481708175e-03    2.81979192040535e-03    2.75135896192941e-03
00.92    5.96250497192154e+00    7.72671595465204e-03    2.97803472920514e-03    2.92767843055309e-03
00.93    6.24996413012309e+00    8.19468140383261e-03    3.14386506387294e-03    3.11528735595842e-03
00.94    6.54784132444106e+00    8.69060493410315e-03    3.31754693818312e-03    3.31500452264351e-03
00.95    6.85629465884470e+00    9.21639673458787e-03    3.49933600797883e-03    3.52772500951699e-03
00.96    7.17546090932521e+00    9.77414309550163e-03    3.68947524067777e-03    3.75442977331048e-03
00.97    7.50545318527040e+00    1.03661291094911e-02    3.88818985313399e-03    3.99619692873253e-03
00.98    7.84635890155715e+00    1.09948646012804e-02    4.09568137947877e-03    4.25421508944141e-03
00.99    8.19823792201486e+00    1.16631121052975e-02    4.31212070618382e-03    4.52979868570336e-03
01.00    8.56112065717200e+00    1.23739137307451e-02    4.53763996117387e-03    4.82440436167498e-03
01.01    8.93500599911830e+00    1.31306108820337e-02    4.77232368326870e-03    5.13964627915172e-03
01.02    9.31985939192582e+00    1.39368496013702e-02    5.01620063498805e-03    5.47730701703662e-03
01.03    9.71561195639165e+00    1.47965652234096e-02    5.26923906838826e-03    5.83934074620202e-03
01.04    1.01221621571510e+01    1.57139456308754e-02    5.53134951881750e-03    6.22786699329032e-03
01.05    1.05393815958271e+01    1.66933830572116e-02    5.80239975380006e-03    6.64515761992264e-03
01.06    1.09671257321908e+01    1.77394394430074e-02    6.08224588043795e-03    7.09362608089210e-03
01.07    1.14052486410004e+01    1.88568655942155e-02    6.37078145027852e-03    7.57583505870684e-03
01.08    1.18536183652956e+01    2.00507198445471e-02    6.66800219189602e-03    8.09454223814950e-03
01.09    1.23121270512841e+01    2.13266180797941e-02    6.97407852732950e-03    8.65279901599689e-03
01.10    1.27806890529052e+01    2.26911038620312e-02    7.28942358214526e-03    9.25409943830030e-03
01.11    1.32592213092477e+01    2.41520616509187e-02    7.61474495685970e-03    9.90254783108616e-03
01.12    1.37476041277183e+01    2.57190258281474e-02    7.95107679543692e-03    1.06029814114840e-02
01.13    1.42456267028803e+01    2.74031952720117e-02    8.29980553181965e-03    1.13609629580661e-02
01.14    1.47529285506344e+01    2.92169830607563e-02    8.66272648456779e-03    1.21825644899094e-02
01.15    1.52689530137858e+01    3.11730342780440e-02    9.04219382347841e-03    1.30739074241586e-02
01.16    1.57929303817635e+01    3.32828284600841e-02    9.44144107773336e-03    1.40405076615918e-02
01.17    1.63239033646299e+01    3.55552035416902e-02    9.86513912964402e-03    1.50865783145158e-02
01.18    1.68607979544038e+01    3.79953219989687e-02    1.03202142704699e-02    1.62145346911223e-02
01.19    1.74025306148018e+01    4.06046609748327e-02    1.08168702282004e-02    1.74249847015318e-02
01.20    1.79481316028750e+01    4.33824843278157e-02    1.13696537680550e-02    1.87174393528593e-02
01.21    1.84968583478877e+01    4.63289264360735e-02    1.19982943212853e-02    2.00918309448559e-02
01.22    1.90482718937940e+01    4.94493498054765e-02    1.27279668846044e-02    2.15507015266740e-02
01.23    1.96022543679736e+01    5.27591340890966e-02    1.35886147197577e-02    2.31016711164484e-02
01.24    2.01589520932742e+01    5.62876640134819e-02    1.46130592384665e-02    2.47595864225381e-02
01.25    2.07186352266044e+01    6.00801568442702e-02    1.58338361663300e-02    2.65476594000850e-02
01.26    2.12814683174640e+01    6.41961924598399e-02    1.72790191730141e-02    2.84969868978679e-02
01.27    2.18471890102410e+01    6.87043949420686e-02    1.89676871401195e-02    3.06441145129098e-02
01.28    2.24146985645758e+01    7.36735796563399e-02    2.09060943469094e-02    3.30267363329041e-02
01.29    2.29815821624520e+01    7.91616611456741e-02    2.30859286819451e-02    3.56781282665802e-02
01.30    2.35436005611369e+01    8.52044766702105e-02    2.54862095384250e-02    3.86213858985458e-02
01.31    2.40942249354432e+01    9.18072278321602e-02    2.80803422122439e-02    4.18648622206026e-02
01.32    2.46243187595526e+01    9.89413004693788e-02    3.08496222093856e-02    4.54002780299154e-02
01.33    2.51220968140860e+01    1.06548690264794e-01    3.38041013429253e-02    4.92047495187835e-02
01.34    2.55735024719450e+01    1.14555191585996e-01    3.70112154971139e-02    5.32474404520681e-02
01.35    2.59631308365830e+01    1.22892003628135e-01    4.06319901612278e-02    5.75007664831100e-02
01.36    2.62757841015813e+01    1.31523731720580e-01    4.49640834722380e-02    6.19551768850358e-02
01.37    2.64986762482343e+01    1.40479221614607e-01    5.04904914923487e-02    6.66356785980712e-02
01.38    2.66242030847439e+01    1.49880552197557e-01    5.79323689795534e-02    7.16176200792479e-02
01.39    2.66530520746258e+01    1.59965116058279e-01    6.83039480162275e-02    7.70389586496489e-02
01.40    2.65972513398356e+01    1.71096126058242e-01    8.29671105701823e-02    8.31063848575208e-02
01.41    2.64825678370012e+01    1.83758096355202e-01    1.03683459036230e-01    9.00932702710375e-02
01.42    2.63495042945678e+01    1.98535667427902e-01    1.32662286822094e-01    9.83283928433405e-02
01.43    2.62520845823239e+01    2.16076417948399e-01    1.72601828186013e-01    1.08175673933238e-01
01.44    2.62537501085979e+01    2.37040772709614e-01    2.26718231731743e-01    1.20006561285848e-01
01.45    2.64200985780448e+01    2.62044193284661e-01    2.98753065821972e-01    1.34167778947782e-01
01.46    2.68089498261276e+01    2.91598546736467e-01    3.92945394240314e-01    1.50948015843498e-01
01.47    2.74593357243233e+01    3.26061755868841e-01    5.13948334766476e-01    1.70548358158461e-01
01.48    2.83822567305501e+01    3.65606727202371e-01    6.66663544036829e-01    1.93062520835998e-01
01.49    2.95568740613726e+01    4.10222784586376e-01    8.55956600312671e-01    2.18474435927733e-01
01.50    3.09361314880762e+01    4.59766256755740e-01    1.08621242599881e+00    2.46683850953179e-01
01.51    3.24671929170750e+01    5.14076102841408e-01    1.36073472449015e+00    2.77571807096152e-01
01.52    3.41339362676990e+01    5.73162588977283e-01    1.68105779315250e+00    3.11113755665577e-01
01.53    3.60257023380932e+01    6.37470787751805e-01    2.04620099738246e+00    3.47543980405742e-01
01.54    3.84295766458627e+01    7.08208834394609e-01    2.45193047130319e+00    3.87564193052272e-01
01.55    4.19397956005403e+01    7.87704734420721e-01    2.89046399050409e+00    4.32569013815757e-01
01.56    4.75746391509752e+01    8.79708306087440e-01    3.35121914720900e+00    4.84831925314485e-01
01.57    5.68819490090184e+01    9.89516614770950e-01    3.82288773834627e+00    5.47569182771498e-01
01.58    7.20201597520305e+01    1.12379976250364e+00    4.29717056061138e+00    6.24794224863812e-01
01.59    9.58387247904130e+01    1.29001466426068e+00    4.77509266155517e+00    7.20889662355886e-01
01.60    1.32014620955061e+02    1.49533705809795e+00    5.27662141947165e+00    8.39868347985265e-01
01.61    1.85302350127376e+02    1.74513400400927e+00    5.85295019346613e+00    9.84371994894319e-01
01.62    2.61945397173651e+02    2.04113043729428e+00    6.59949594714757e+00    1.15454961808164e+00
01.63    3.70267426367685e+02    2.37956602830410e+00    7.66663966042905e+00    1.34704184333268e+00
01.64    5.21361366779907e+02    2.74975974403021e+00    9.26394076135701e+00    1.55434357715256e+00
01.65    7.29626616093238e+02    3.13355885432991e+00    1.16525128299678e+01    1.76480347843498e+00
01.66    1.01273728055029e+03    3.50609518950553e+00    1.51207137898183e+01    1.96342885522034e+00
01.67    1.39055019185804e+03    3.83807092100152e+00    1.99409742086752e+01    2.13350631882963e+00
01.68    1.88257737642237e+03    4.09946873827560e+00    2.63104739453503e+01    2.25885752824182e+00
01.69    2.50400745232247e+03    4.26419999076867e+00    3.42847813599266e+01    2.32637573276246e+00
01.70    3.26081174704546e+03    4.31487359657947e+00    4.37197428602187e+01    2.32838105253767e+00
01.71    4.14504140330285e+03    4.24670421824515e+00    5.42401941982719e+01    2.26432576767684e+00
01.72    5.13176322479234e+03    4.06966610889708e+00    6.52519391318652e+01    2.14148548878414e+00
01.73    6.17896733791154e+03    3.80832801765772e+00    7.60048307386191e+01    1.97446294022709e+00
01.74    7.23113208657235e+03    3.49927240446316e+00    8.57010557351642e+01    1.78355612161380e+00
01.75    8.22610876171310e+03    3.18647929536420e+00    9.36278681595385e+01    1.59224444595272e+00
01.76    9.10394506294028e+03    2.91541098969555e+00    9.92834961124398e+01    1.42418144424490e+00
01.77    9.81560744418513e+03    2.72668814098213e+00    1.02463504429223e+02    1.30013343546102e+00
01.78    1.03295609941179e+04    2.65024045092904e+00    1.03284285679407e+02    1.23528193474594e+00
01.79    1.06348242614572e+04    2.70072510032721e+00    1.02137873268209e+02    1.23723885177716e+00
01.80    1.07401688665981e+04    2.87486344856641e+00    9.95916674124852e+01    1.30502783372576e+00
01.81    1.06701750305745e+04    3.15116205350654e+00    9.62609937759363e+01    1.42917136989707e+00
01.82    1.04595277232393e+04    3.49224363794097e+00    9.26870702306792e+01    1.59289349604012e+00
01.83    1.01470808576163e+04    3.84967929581519e+00    8.92474368310385e+01    1.77430546537497e+00
01.84    9.77089510815331e+03    4.17078306135318e+00    8.61135874240221e+01    1.94929794308002e+00
01.85    9.36488795081900e+03    4.40638262349091e+00    8.32566932257656e+01    2.09474111511451e+00
01.86    8.95716712080643e+03    4.51825744619002e+00    8.04915565292544e+01    2.19152561501579e+00
01.87    8.56971758735028e+03    4.48487026356712e+00    7.75435632022006e+01    2.22698624544693e+00
01.88    8.21892746400297e+03    4.30427556296425e+00    7.41230007663109e+01    2.19634152637043e+00
01.89    7.91643062083242e+03    3.99365623861851e+00    6.99934851109406e+01    2.10295070789328e+00
01.90    7.66985225984436e+03    3.58568409271900e+00    6.50244277648797e+01    1.95740203106382e+00
01.91    7.48322948442750e+03    3.12260827996104e+00    5.92210375358385e+01    1.77565458083103e+00
01.92    7.35711139218344e+03    2.64942470615906e+00    5.27291412176366e+01    1.57661245068556e+00
01.93    7.28856780638670e+03    2.20755049830624e+00    4.58157978594742e+01    1.37958152734867e+00
01.94    7.27149336847561e+03    1.83015008168101e+00    3.88306624680563e+01    1.20204381747732e+00
01.95    7.29763636733311e+03    1.53971627920178e+00    3.21572848152532e+01    1.05807958206022e+00
