# RiF 1e-20 (cm^2/W)
# 1w(eV) RpP                     RpS                     RsP                     RsS
00.01    3.52829295852705e-07    6.94918577553908e-09    1.26171794429574e-10    1.93369335897234e-09
00.02    4.25296629817240e-07    8.38060229690538e-09    1.52110201241596e-10    2.33197680955898e-09
00.03    5.77331808000508e-07    1.13849306751756e-08    2.06535717786902e-10    3.16790663968019e-09
00.04    8.23104576002201e-07    1.62447828867977e-08    2.94535899003901e-10    4.52010184127687e-09
00.05    1.18379612613762e-06    2.33832243944007e-08    4.23719206728892e-10    6.50624957995638e-09
00.06    1.68752310504260e-06    3.33629826413402e-08    6.04191865066681e-10    9.28288181683699e-09
00.07    2.36925368842945e-06    4.68857393545304e-08    8.48533203002069e-10    1.30451713449498e-08
00.08    3.27072506572697e-06    6.47916790623267e-08    1.17177278482946e-09    1.80267992803027e-08
00.09    4.44037009185685e-06    8.80594503091885e-08    1.59137210058041e-09    2.44999355487217e-08
00.10    5.93325743899484e-06    1.17806630740758e-07    2.12721233296310e-09    3.27753566022549e-08
00.11    7.81104658843413e-06    1.55290716653411e-07    2.80158872626401e-09    4.32027092592972e-08
00.12    1.01419569239119e-05    2.01910628256870e-07    3.63921111951205e-09    5.61709155492866e-08
00.13    1.30007480137197e-05    2.59208681219908e-07    4.66720982334578e-09    7.21087073321139e-08
00.14    1.64687087509816e-05    3.28872983020544e-07    5.91514591253787e-09    9.14852756534848e-08
00.15    2.06336520768622e-05    4.12740188281207e-07    7.41502451538291e-09    1.14811022512342e-07
00.16    2.55899136375172e-05    5.12798605541502e-07    9.20131091357948e-09    1.42638405503024e-07
00.17    3.14383525231875e-05    6.31191608962749e-07    1.13109483039559e-08    1.75562869138478e-07
00.18    3.82863534653090e-05    7.70221367458884e-07    1.37833774392136e-08    2.14223861775662e-07
00.19    4.62478300148552e-05    9.32352883800886e-07    1.66605576832747e-08    2.59305937240507e-07
00.20    5.54432284295353e-05    1.12021836100509e-06    1.99869894773381e-08    3.11539944928644e-07
00.21    6.59995323613847e-05    1.33662188917185e-06    2.38097383908688e-08    3.71704309222127e-07
00.22    7.80502683292178e-05    1.58454450628478e-06    2.81784601733904e-08    4.40626403255591e-07
00.23    9.17355118757860e-05    1.86714958994101e-06    3.31454276495500e-08    5.19184021117432e-07
00.24    1.07201894759021e-04    2.18778868171131e-06    3.87655585547421e-08    6.08306951516169e-07
00.25    1.24602612518453e-04    2.55000762757832e-06    4.50964451507049e-08    7.08978658010116e-07
00.26    1.44097433130728e-04    2.95755325052739e-06    5.21983851803614e-08    8.22238072422123e-07
00.27    1.65852705676684e-04    3.41438032252066e-06    6.01344141872768e-08    9.49181502312577e-07
00.28    1.90041370026410e-04    3.92465907321390e-06    6.89703396609330e-08    1.09096466612662e-06
00.29    2.16842966691590e-04    4.49278308412812e-06    7.87747760245922e-08    1.24880485595191e-06
00.30    2.46443648517156e-04    5.12337770469657e-06    8.96191813899570e-08    1.42398324247861e-06
00.31    2.79036192173522e-04    5.82130892017897e-06    1.01577894907645e-07    1.61784732518229e-06
00.32    3.14820012501189e-04    6.59169283388596e-06    1.14728174648338e-07    1.83181353979432e-06
00.33    3.54001177388117e-04    7.43990572959254e-06    1.29150237682192e-07    2.06737003263173e-06
00.34    3.96792424859960e-04    8.37159481867940e-06    1.44927300678633e-07    2.32607960482820e-06
00.35    4.43413181859783e-04    9.39268972889419e-06    1.62145621928064e-07    2.60958284630152e-06
00.36    4.94089584505925e-04    1.05094147620473e-05    1.80894545320417e-07    2.91960145803130e-06
00.37    5.49054501482698e-04    1.17283019916670e-05    2.01266544766633e-07    3.25794178841941e-06
00.38    6.08547558367308e-04    1.30562050328947e-05    2.23357270601419e-07    3.62649858356176e-06
00.39    6.72815165041974e-04    1.45003138145658e-05    2.47265596021947e-07    4.02725897333937e-06
00.40    7.42110544600773e-04    1.60681700984361e-05    2.73093666088524e-07    4.46230670516669e-06
00.41    8.16693765255158e-04    1.77676839620162e-05    3.00946946952743e-07    4.93382663876506e-06
00.42    8.96831773548181e-04    1.96071513312545e-05    3.30934276757704e-07    5.44410952502453e-06
00.43    9.82798431020032e-04    2.15952725123967e-05    3.63167918637270e-07    5.99555708425875e-06
00.44    1.07487455292536e-03    2.37411719845747e-05    3.97763612855203e-07    6.59068741325094e-06
00.45    1.17334794856622e-03    2.60544193023879e-05    4.34840629820083e-07    7.23214073663311e-06
00.46    1.27851346671055e-03    2.85450514785554e-05    4.74521822283370e-07    7.92268554701749e-06
00.47    1.39067304034739e-03    3.12235966109056e-05    5.16933676310787e-07    8.66522512780575e-06
00.48    1.51013573900250e-03    3.41010992504396e-05    5.62206360430379e-07    9.46280452479387e-06
00.49    1.63721782110229e-03    3.71891472240446e-05    6.10473777724800e-07    1.03186179614251e-05
00.50    1.77224279428100e-03    4.04999004094666e-05    6.61873616576564e-07    1.12360167331126e-05
00.51    1.91554147858484e-03    4.40461214143837e-05    7.16547396839382e-07    1.22185176541826e-05
00.52    2.06745208040347e-03    4.78412080840074e-05    7.74640539834526e-07    1.32698120000366e-05
00.53    2.22832026927726e-03    5.18992286649598e-05    8.36302403941457e-07    1.43937751337369e-05
00.54    2.39849926775433e-03    5.62349590055153e-05    9.01686359199163e-07    1.55944767035792e-05
00.55    2.57834994751321e-03    6.08639229237595e-05    9.70949831173080e-07    1.68761916348114e-05
00.56    2.76824093438630e-03    6.58024351910682e-05    1.04425435180931e-06    1.82434118329296e-05
00.57    2.96854872236436e-03    7.10676477655851e-05    1.12176560002947e-06    1.97008587590261e-05
00.58    3.17965779012327e-03    7.66775992430618e-05    1.20365345652564e-06    2.12534969075719e-05
00.59    3.40196072645600e-03    8.26512674759623e-05    1.29009201698822e-06    2.29065481994570e-05
00.60    3.63585835280948e-03    8.90086263131659e-05    1.38125961997456e-06    2.46655075500768e-05
00.61    3.88175985921393e-03    9.57707052223853e-05    1.47733888768447e-06    2.65361594650564e-05
00.62    4.14008293915397e-03    1.02959653856583e-04    1.57851674451415e-06    2.85245959704708e-05
00.63    4.41125394774764e-03    1.10598810836627e-04    1.68498443753939e-06    3.06372358655727e-05
00.64    4.69570806613307e-03    1.18712777871055e-04    1.79693756126793e-06    3.28808454248325e-05
00.65    4.99388949648222e-03    1.27327500282441e-04    1.91457606514707e-06    3.52625606794375e-05
00.66    5.30625167515570e-03    1.36470354081805e-04    2.03810420523066e-06    3.77899113363956e-05
00.67    5.63325750229741e-03    1.46170240432889e-04    2.16773048815882e-06    4.04708464616934e-05
00.68    5.97537959890460e-03    1.56457688035060e-04    2.30366756700442e-06    4.33137622001606e-05
00.69    6.33310057259629e-03    1.67364963606445e-04    2.44613213191595e-06    4.63275317422286e-05
00.70    6.70691330695007e-03    1.78926191265143e-04    2.59534478430813e-06    4.95215378739665e-05
00.71    7.09732126295247e-03    1.91177480707252e-04    2.75152995136802e-06    5.29057083697919e-05
00.72    7.50483879289593e-03    2.04157065418701e-04    2.91491579190873e-06    5.64905545630286e-05
00.73    7.92999149386434e-03    2.17905453307232e-04    3.08573408708550e-06    6.02872135200782e-05
00.74    8.37331657354284e-03    2.32465589260870e-04    3.26422008768831e-06    6.43074936135765e-05
00.75    8.83536324234454e-03    2.47883032397911e-04    3.45061230889928e-06    6.85639241959629e-05
00.76    9.31669314922017e-03    2.64206150325757e-04    3.64515216678152e-06    7.30698092712168e-05
00.77    9.81788084370906e-03    2.81486330787364e-04    3.84808355547072e-06    7.78392860837073e-05
00.78    1.03395142678382e-02    2.99778214073894e-04    4.05965234232338e-06    8.28873891319963e-05
00.79    1.08821953082942e-02    3.19139948868224e-04    4.28010574283240e-06    8.82301205860561e-05
00.80    1.14465403691664e-02    3.39633473479819e-04    4.50969167474814e-06    9.38845281108910e-05
00.81    1.20331810315870e-02    3.61324826916303e-04    4.74865800994612e-06    9.98687910846590e-05
00.82    1.26427647620761e-02    3.84284492099822e-04    4.99725166936740e-06    1.06202316045154e-04
00.83    1.32759557197412e-02    4.08587775818116e-04    5.25571757093832e-06    1.12905842377644e-04
00.84    1.39334356608435e-02    4.34315230245722e-04    5.52429727124079e-06    1.20001559830511e-04
00.85    1.46159049193954e-02    4.61553120513922e-04    5.80322732995887e-06    1.27513238780400e-04
00.86    1.53240835017143e-02    4.90393946889982e-04    6.09273733296805e-06    1.35466375943541e-04
00.87    1.60587122405487e-02    5.20937028170045e-04    6.39304745473203e-06    1.43888357273552e-04
00.88    1.68205540315081e-02    5.53289157098244e-04    6.70436566018838e-06    1.52808641270083e-04
00.89    1.76103951611651e-02    5.87565341590346e-04    7.02688428345941e-06    1.62258966400960e-04
00.90    1.84290467393080e-02    6.23889650009137e-04    7.36077594389994e-06    1.72273587981584e-04
00.91    1.92773463041421e-02    6.62396183822845e-04    7.70618849210515e-06    1.82889550162337e-04
00.92    2.01561595721197e-02    7.03230196578156e-04    8.06323903021722e-06    1.94146998813150e-04
00.93    2.10663823732990e-02    7.46549378096586e-04    8.43200689653341e-06    2.06089539626266e-04
00.94    2.20089426891324e-02    7.92525323513598e-04    8.81252567301189e-06    2.18764647150774e-04
00.95    2.29848028708049e-02    8.41345216070715e-04    9.20477425844255e-06    2.32224133624210e-04
00.96    2.39949620890380e-02    8.93213780316236e-04    9.60866675607161e-06    2.46524694958307e-04
00.97    2.50404593166806e-02    9.48355573369777e-04    1.00240407972093e-05    2.61728554905654e-04
00.98    2.61223772852929e-02    1.00701767818641e-03    1.04506434896962e-05    2.77904229236504e-04
00.99    2.72418478853904e-02    1.06947275981823e-03    1.08881141156807e-05    2.95127402992413e-04
01.00    2.84000593726867e-02    1.13602226711401e-03    1.13359626506336e-05    3.13481862484696e-04
01.01    2.95982651166835e-02    1.20699927390194e-03    1.17935459790930e-05    3.33060343511721e-04
01.02    3.08377924468655e-02    1.28277024248811e-03    1.22600465201483e-05    3.53965085823174e-04
01.03    3.21200489952469e-02    1.36373499204591e-03    1.27344630624449e-05    3.76307881907042e-04
01.04    3.34465228890194e-02    1.45032456057139e-03    1.32156264727664e-05    4.00209511857818e-04
01.05    3.48187734507930e-02    1.54299759718243e-03    1.37022527062913e-05    4.25798724414163e-04
01.06    3.62384109879407e-02    1.64223734136214e-03    1.41930403186355e-05    4.53211328134224e-04
01.07    3.77070679138028e-02    1.74855277101270e-03    1.46868087005352e-05    4.82590397190704e-04
01.08    3.92263684396245e-02    1.86248825699169e-03    1.51826575656914e-05    5.14088825590609e-04
01.09    4.07979082751029e-02    1.98464493111091e-03    1.56801139493949e-05    5.47875153429543e-04
01.10    4.24232576675491e-02    2.11571311355272e-03    1.61792282587299e-05    5.84142505596169e-04
01.11    4.41039986552110e-02    2.25650886539698e-03    1.66805956478862e-05    6.23118697041865e-04
01.12    4.58418001545848e-02    2.40800079499164e-03    1.71853155531128e-05    6.65073576630825e-04
01.13    4.76385238857459e-02    2.57130873409518e-03    1.76949559728426e-05    7.10318382165886e-04
01.14    4.94963430858954e-02    2.74765731542997e-03    1.82116425680419e-05    7.59192258145902e-04
01.15    5.14178478869318e-02    2.93827717675045e-03    1.87384249297622e-05    8.12033838289312e-04
01.16    5.34061091444648e-02    3.14426438400024e-03    1.92800503194705e-05    8.69140890180089e-04
01.17    5.54646772911473e-02    3.36643083291968e-03    1.98441814287357e-05    9.30727369242073e-04
01.18    5.75975022414564e-02    3.60519763301061e-03    2.04429338224919e-05    9.96892770789038e-04
01.19    5.98087712785193e-02    3.86059107063069e-03    2.10944191995010e-05    1.06762089553287e-03
01.20    6.21026730373347e-02    4.13238979432591e-03    2.18238187960712e-05    1.14282206035774e-03
01.21    6.44831049481768e-02    4.42044014454039e-03    2.26634464583963e-05    1.22242375939308e-03
01.22    6.69533558278252e-02    4.72510898441979e-03    2.36513479176027e-05    1.30650114784558e-03
01.23    6.95158121856872e-02    5.04779074458618e-03    2.48282439326449e-05    1.39542358586622e-03
01.24    7.21717587730876e-02    5.39134298145164e-03    2.62330259750804e-05    1.48998122089855e-03
01.25    7.49213603828804e-02    5.76030788654216e-03    2.78974643485975e-05    1.59145056232035e-03
01.26    7.77639130129195e-02    6.16079673616723e-03    2.98411631817365e-05    1.70156340732818e-03
01.27    8.06984237348370e-02    6.59997277090985e-03    3.20679842777894e-05    1.82236010299938e-03
01.28    8.37245122409045e-02    7.08515762922521e-03    3.45650897220672e-05    1.95593376033590e-03
01.29    8.68435296723723e-02    7.62269001974761e-03    3.73054288980875e-05    2.10410176148008e-03
01.30    9.00596821291519e-02    8.21675939612146e-03    4.02540147323758e-05    2.26806812356948e-03
01.31    9.33808633029337e-02    8.86849882657452e-03    4.33778796567734e-05    2.44815818584275e-03
01.32    9.68188794885865e-02    9.57563084135215e-03    4.66593854350102e-05    2.64371013572661e-03
01.33    1.00388810233921e-01    1.03329072589619e-02    5.01127138774079e-05    2.85319299683958e-03
01.34    1.04107391455151e-01    1.11334708625377e-02    5.38038635692690e-05    3.07458821101830e-03
01.35    1.07990507101362e-01    1.19711075323773e-02    5.78751255028494e-05    3.30602613481835e-03
01.36    1.12050087390369e-01    1.28431780754575e-02    6.25754871467943e-05    3.54661703838431e-03
01.37    1.16290884333961e-01    1.37538524295564e-02    6.82984707132450e-05    3.79736818839983e-03
01.38    1.20707687191223e-01    1.47171489068827e-02    7.56280170568594e-05    4.06204405002609e-03
01.39    1.25283552373880e-01    1.57592349068726e-02    8.53910504205682e-05    4.34781326247822e-03
01.40    1.29989585833432e-01    1.69194870317245e-02    9.87126198572560e-05    4.66553833798070e-03
01.41    1.34786790425663e-01    1.82499347502688e-02    1.17067245290632e-04    5.02960134321276e-03
01.42    1.39630463042944e-01    1.98129051819703e-02    1.42318643060203e-04    5.45721729157838e-03
01.43    1.44477545885044e-01    2.16769254233542e-02    1.76738658537107e-04    5.96725966682250e-03
01.44    1.49297157813461e-01    2.39111898812805e-02    2.22995071648676e-04    6.57869825329002e-03
01.45    1.54084141212497e-01    2.65791061671842e-02    2.84099008639446e-04    7.30880882455131e-03
01.46    1.58875021655544e-01    2.97316019437752e-02    3.63305366550908e-04    8.17135841170091e-03
01.47    1.63765382010726e-01    3.34010771588709e-02    4.63963062103021e-04    9.17502133080654e-03
01.48    1.68927471543504e-01    3.75971127642632e-02    5.89319122715398e-04    1.03223364640237e-02
01.49    1.74626993501295e-01    4.23053214704892e-02    7.42271438469404e-04    1.16095760673057e-02
01.50    1.81238071272368e-01    4.74910843051816e-02    9.25051895944564e-04    1.30279977621623e-02
01.51    1.89255581518814e-01    5.31099794119584e-02    1.13885682287871e-03    1.45670018373664e-02
01.52    1.99303915451931e-01    5.91261088927277e-02    1.38348081140322e-03    1.62195650608883e-02
01.53    2.12140607980177e-01    6.55384873012521e-02    1.65696889036883e-03    1.79900347676934e-02
01.54    2.28652255449725e-01    7.24137016152842e-02    1.95527090212630e-03    1.99038105580410e-02
01.55    2.49838443039870e-01    7.99197447893555e-02    2.27196078671493e-03    2.20174591617193e-02
01.56    2.76776526272204e-01    8.83516378753281e-02    2.59818364537431e-03    2.44264897193001e-02
01.57    3.10559929852060e-01    9.81364805670626e-02    2.92293674500425e-03    2.72670029672699e-02
01.58    3.52207739621364e-01    1.09805680066797e-01    3.23368965000711e-03    3.07072916765813e-02
01.59    4.02552972102017e-01    1.23925572268552e-01    3.51752742665099e-03    3.49264226031178e-02
01.60    4.62126890019410e-01    1.40985441820605e-01    3.76322999779497e-03    4.00792532814371e-02
01.61    5.31063013727018e-01    1.61253766121329e-01    3.96447013996571e-03    4.62511619692503e-02
01.62    6.09043140093936e-01    1.84626587072363e-01    4.12392871312512e-03    5.34100993038360e-02
01.63    6.95293823202399e-01    2.10502069426083e-01    4.25793007418741e-03    6.13669957499554e-02
01.64    7.88615985636474e-01    2.37718657756919e-01    4.40076812468435e-03    6.97567096632414e-02
01.65    8.87405399537504e-01    2.64588269602602e-01    4.60728184402497e-03    7.80496440187418e-02
01.66    9.89613886906127e-01    2.89039884940468e-01    4.95193933841067e-03    8.55986570422373e-02
01.67    1.09262084913345e+00    3.08865171266461e-01    5.52290932972790e-03    9.17179195906730e-02
01.68    1.19303361332053e+00    3.22032394255126e-01    6.41048114098777e-03    9.57820876758307e-02
01.69    1.28649811937178e+00    3.27015131552409e-01    7.69080390056388e-03    9.73280618822151e-02
01.70    1.36765093469989e+00    3.23073938325062e-01    9.40788421518608e-03    9.61395499372235e-02
01.71    1.43034923914683e+00    3.10434925469768e-01    1.15583364564355e-02    9.22973578616587e-02
01.72    1.46826004021090e+00    2.90328514061021e-01    1.40837300817252e-02    8.61851920910208e-02
01.73    1.47578175696882e+00    2.64878825414614e-01    1.68740273479540e-02    7.84496998111023e-02
01.74    1.44914446267942e+00    2.36861628586456e-01    1.97826779758219e-02    6.99220216110378e-02
01.75    1.38743954701371e+00    2.09369707786798e-01    2.26502466980518e-02    6.15142052748511e-02
01.76    1.29330616016548e+00    1.85435160501662e-01    2.53303672128168e-02    5.41064514183623e-02
01.77    1.17306242211224e+00    1.67658662535978e-01    2.77107520892373e-02    4.84406314895851e-02
01.78    1.03619917842572e+00    1.57889824021775e-01    2.97235796066323e-02    4.50329826631796e-02
01.79    8.94312756856848e-01    1.56994737434782e-01    3.13432944987962e-02    4.41155874221950e-02
01.80    7.59682840224526e-01    1.64738338897898e-01    3.25741842764673e-02    4.56128243074929e-02
01.81    6.43758530441468e-01    1.79799623712618e-01    3.34332782673127e-02    4.91554320465910e-02
01.82    5.55794166973766e-01    1.99925419777429e-01    3.39349502063457e-02    5.41309106051785e-02
01.83    5.01803062804226e-01    2.22211971232148e-01    3.40819615129843e-02    5.97646118496930e-02
01.84    4.83913156506371e-01    2.43483709469674e-01    3.38645778420744e-02    6.52214357801715e-02
01.85    5.00149427864419e-01    2.60718962030785e-01    3.32663132499335e-02    6.97143969685829e-02
01.86    5.44645870122523e-01    2.71458709375729e-01    3.22730175772720e-02    7.26045465438602e-02
01.87    6.08289430916039e-01    2.74132091793327e-01    3.08818920104180e-02    7.34776137392709e-02
01.88    6.79787333276082e-01    2.68243673873078e-01    2.91081614715401e-02    7.21862987599508e-02
01.89    7.47100477445819e-01    2.54391918466819e-01    2.69885678923567e-02    6.88529750370187e-02
01.90    7.99097457375376e-01    2.34120958034881e-01    2.45818207940278e-02    6.38345251170193e-02
01.91    8.27185742015476e-01    2.09640524197105e-01    2.19665161371772e-02    5.76575782914892e-02
01.92    8.26615626710243e-01    1.83473013830220e-01    1.92370522923544e-02    5.09370000112958e-02
01.93    7.97172921278505e-01    1.58096754935978e-01    1.64979064072022e-02    4.42923369752511e-02
01.94    7.43092521130235e-01    1.35649447659080e-01    1.38565305761244e-02    3.82760052449930e-02
01.95    6.72208258917328e-01    1.17736397826875e-01    1.14154673068394e-02    3.33233670053636e-02
