# RiF 1e-20 (cm^2/W)
# 1w(eV) RpP                     RpS                     RsP                     RsS
00.01    5.17903457987283e-05    5.32141417328716e-08    1.85273583425282e-08    5.55205132173780e-09
00.02    6.24495425188818e-05    6.41710041511059e-08    2.23444195379742e-08    6.69613691931057e-09
00.03    8.48189659080706e-05    8.71664735081942e-08    3.03560759722140e-08    9.09753850976918e-09
00.04    1.20997329109403e-04    1.24360893357347e-07    4.33164244846374e-08    1.29824405292219e-08
00.05    1.74125051504766e-04    1.78987671256140e-07    6.23544311587232e-08    1.86895028232469e-08
00.06    2.48376834763733e-04    2.55346329089399e-07    8.89719482419137e-08    2.66693106241159e-08
00.07    3.48954267366328e-04    3.58796222509401e-07    1.25041967117151e-07    3.74839102493324e-08
00.08    4.82079867220513e-04    4.95751791444583e-07    1.72807603576438e-07    5.18065800472099e-08
00.09    6.54993592180160e-04    6.73680763610213e-07    2.34882210033523e-07    7.04219566180525e-08
00.10    8.75952515082818e-04    9.01106147120737e-07    3.14250847480266e-07    9.42265853053432e-08
00.11    1.15423386706220e-03    1.18761179343765e-06    4.14273192628255e-07    1.24229921735453e-07
00.12    1.50014121589720e-03    1.54385174343989e-06    5.38687835574444e-07    1.61555769941143e-07
00.13    1.92501359372335e-03    1.98156273014024e-06    6.91617850532779e-07    2.07444126478452e-07
00.14    2.44123696527245e-03    2.51357987000788e-06    8.77577499487968e-07    2.63253387028699e-07
00.15    3.06225778968229e-03    3.15385430041955e-06    1.10147992685529e-06    3.30462882925034e-07
00.16    3.80259831762829e-03    3.91747364573613e-06    1.36864577639908e-06    4.10675720709138e-07
00.17    4.67787337595189e-03    4.82068398276905e-06    1.68481263439886e-06    5.05621908302134e-07
00.18    5.70480858612979e-03    5.88091409424653e-06    2.05614530509066e-06    6.17161766817982e-07
00.19    6.90125982187005e-03    7.11680164545080e-06    2.48924688184131e-06    7.47289626979459e-07
00.20    8.28623403336760e-03    8.54822158303829e-06    2.99117066006981e-06    8.98137824405413e-07
00.21    9.87991125441157e-03    1.01963164363305e-05    3.56943288756692e-06    1.07198099487413e-06
00.22    1.17036678547021e-02    1.20835297788465e-05    4.23202637701738e-06    1.27124069108999e-06
00.23    1.37801011645744e-02    1.42336410402428e-05    4.98743502109474e-06    1.49849033032374e-06
00.24    1.61330551845215e-02    1.66718048453157e-05    5.84464923951100e-06    1.75646048989316e-06
00.25    1.87876478047408e-02    1.94245901202102e-05    6.81318239019352e-06    2.04804456390922e-06
00.26    2.17702991444977e-02    2.25200262180770e-05    7.90308819288934e-06    2.37630480728652e-06
00.27    2.51087614175085e-02    2.59876470230227e-05    9.12497917149964e-06    2.74447877402057e-06
00.28    2.88321500134192e-02    2.98585408417387e-05    1.04900461974607e-05    3.15598619169006e-06
00.29    3.29709762371491e-02    3.41653996564328e-05    1.20100791338817e-05    3.61443627578890e-06
00.30    3.75571812456780e-02    3.89425720207942e-05    1.36974886232528e-05    4.12363552934516e-06
00.31    4.26241715375021e-02    4.42261158399738e-05    1.55653290663918e-05    4.68759604305982e-06
00.32    4.82068558839732e-02    5.00538565120091e-05    1.76273227388608e-05    5.31054432395023e-06
00.33    5.43416834937495e-02    5.64654476392808e-05    1.98978852986250e-05    5.99693070024669e-06
00.34    6.10666836325796e-02    6.35024382271843e-05    2.23921525396758e-05    6.75143931105720e-06
00.35    6.84215063540955e-02    7.12083461153905e-05    2.51260085814215e-05    7.57899874091595e-06
00.36    7.64474646574146e-02    7.96287387767978e-05    2.81161155748235e-05    8.48479331937696e-06
00.37    8.51875776781117e-02    8.88113210825645e-05    3.13799449954247e-05    9.47427514872229e-06
00.38    9.46866152300963e-02    9.88060234733836e-05    3.49358106048889e-05    1.05531768838845e-05
00.39    1.04991143741158e-01    1.09665100537315e-04    3.88029031247267e-05    1.17275253237129e-05
00.40    1.16149573402482e-01    1.21443228931956e-04    4.30013267525653e-05    1.30036558637456e-05
00.41    1.28212206612310e-01    1.34197611006760e-04    4.75521375875486e-05    1.43882278589515e-05
00.42    1.41231287989100e-01    1.47988085786843e-04    5.24773838015496e-05    1.58882409692033e-05
00.43    1.55261055252285e-01    1.62877242215596e-04    5.78001479337242e-05    1.75110525476146e-05
00.44    1.70357791550952e-01    1.78930542789553e-04    6.35445909836538e-05    1.92643961801615e-05
00.45    1.86579879078597e-01    1.96216448292290e-04    6.97359987275777e-05    2.11564014271163e-05
00.46    2.03987853324518e-01    2.14806554389431e-04    7.64008300332722e-05    2.31956149018340e-05
00.47    2.22644458973551e-01    2.34775729407657e-04    8.35667676276003e-05    2.53910227365026e-05
00.48    2.42614706271290e-01    2.56202266497708e-04    9.12627712739542e-05    2.77520745668845e-05
00.49    2.63965929087062e-01    2.79168038593275e-04    9.95191337742413e-05    3.02887091008828e-05
00.50    2.86767843019877e-01    3.03758671534441e-04    1.08367539664726e-04    3.30113813762966e-05
00.51    3.11092604774490e-01    3.30063723969739e-04    1.17841126881335e-04    3.59310919143307e-05
00.52    3.37014871488449e-01    3.58176882512448e-04    1.27974551833481e-04    3.90594176519713e-05
00.53    3.64611860199764e-01    3.88196172466235e-04    1.38804056833499e-04    4.24085452235373e-05
00.54    3.93963405655018e-01    4.20224186457496e-04    1.50367541474037e-04    4.59913062612779e-05
00.55    4.25152020899118e-01    4.54368333530995e-04    1.62704636739554e-04    4.98212154332888e-05
00.56    4.58262949947032e-01    4.90741110412582e-04    1.75856782385784e-04    5.39125110027325e-05
00.57    4.93384228588934e-01    5.29460387443319e-04    1.89867307940422e-04    5.82801984068182e-05
00.58    5.30606734615999e-01    5.70649722405263e-04    2.04781517543087e-04    6.29400970481878e-05
00.59    5.70024247083457e-01    6.14438669889311e-04    2.20646777491731e-04    6.79088903661988e-05
00.60    6.11733498770680e-01    6.60963126720468e-04    2.37512608311610e-04    7.32041800629754e-05
00.61    6.55834224406980e-01    7.10365660255817e-04    2.55430781054662e-04    7.88445440070322e-05
00.62    7.02429217829223e-01    7.62795872631268e-04    2.74455417440373e-04    8.48495989298298e-05
00.63    7.51624367874001e-01    8.18410770954204e-04    2.94643094365823e-04    9.12400677418409e-05
00.64    8.03528707887536e-01    8.77375173013207e-04    3.16052953286253e-04    9.80378519506007e-05
00.65    8.58254439801570e-01    9.39862164409300e-04    3.38746813815459e-04    1.05266109693030e-04
00.66    9.15916960978269e-01    1.00605360082808e-03    3.62789290185680e-04    1.12949339564194e-04
00.67    9.76634878889875e-01    1.07614067564164e-03    3.88247912367745e-04    1.21113470700040e-04
00.68    1.04053001482806e+00    1.15032454641425e-03    4.15193250016504e-04    1.29785959971545e-04
00.69    1.10772740925584e+00    1.22881700270766e-03    4.43699040319587e-04    1.38995897304076e-04
00.70    1.17835531122010e+00    1.31184118151990e-03    4.73842319199976e-04    1.48774119871749e-04
00.71    1.25254516487385e+00    1.39963230833845e-03    5.05703557842164e-04    1.59153336437370e-04
00.72    1.33043158666525e+00    1.49243846088177e-03    5.39366801567903e-04    1.70168262777453e-04
00.73    1.41215232424813e+00    1.59052139348428e-03    5.74919812674788e-04    1.81855769914765e-04
00.74    1.49784818743839e+00    1.69415740492658e-03    6.12454214330469e-04    1.94255044677411e-04
00.75    1.58766296163665e+00    1.80363828156601e-03    6.52065635810068e-04    2.07407764761484e-04
00.76    1.68174327504021e+00    1.91927235763758e-03    6.93853853920961e-04    2.21358288617286e-04
00.77    1.78023844592437e+00    2.04138566457710e-03    7.37922932858826e-04    2.36153862757711e-04
00.78    1.88330029506861e+00    2.17032323059367e-03    7.84381359097152e-04    2.51844847954753e-04
00.79    1.99108293518809e+00    2.30645051890020e-03    8.33342166662014e-04    2.68484968251816e-04
00.80    2.10374251955802e+00    2.45015502275264e-03    8.84923053792935e-04    2.86131585137758e-04
00.81    2.22143695285522e+00    2.60184803795520e-03    9.39246482512813e-04    3.04846001443350e-04
00.82    2.34432554557431e+00    2.76196659720830e-03    9.96439756162503e-04    3.24693797228719e-04
00.83    2.47256856367697e+00    2.93097561203823e-03    1.05663506590314e-03    3.45745202561281e-04
00.84    2.60632666986220e+00    3.10937019897388e-03    1.11996949543827e-03    3.68075512351533e-04
00.85    2.74576023039805e+00    3.29767823623265e-03    1.18658497292957e-03    3.91765546739530e-04
00.86    2.89102845749273e+00    3.49646319248630e-03    1.25662815228602e-03    4.16902166889673e-04
00.87    3.04228838936391e+00    3.70632726097662e-03    1.33025020384412e-03    4.43578850593474e-04
00.88    3.19969369776272e+00    3.92791489101186e-03    1.40760649008268e-03    4.71896339613011e-04
00.89    3.36339330445543e+00    4.16191680244569e-03    1.48885608760630e-03    5.01963370106457e-04
00.90    3.53352979019989e+00    4.40907457906165e-03    1.57416112007185e-03    5.33897504349428e-04
00.91    3.71023757530599e+00    4.67018603115554e-03    1.66368585173893e-03    5.67826083964895e-04
00.92    3.89364087624318e+00    4.94611141502060e-03    1.75759551151666e-03    6.03887324263461e-04
00.93    4.08385150851134e+00    5.23778067666873e-03    1.85605481100073e-03    6.42231566802032e-04
00.94    4.28096658743989e+00    5.54620182641514e-03    1.95922613355829e-03    6.83022710491877e-04
00.95    4.48506625197280e+00    5.87247055254398e-03    2.06726736929263e-03    7.26439853073103e-04
00.96    4.69621157391417e+00    6.21778134086549e-03    2.18032936134821e-03    7.72679200897682e-04
00.97    4.91444265973664e+00    6.58344024821303e-03    2.29855291705221e-03    8.21956318159092e-04
00.98    5.13977696640548e+00    6.97087933333609e-03    2.42206530824025e-03    8.74508788725490e-04
00.99    5.37220770038334e+00    7.38167178136974e-03    2.55097617215751e-03    9.30599271853544e-04
01.00    5.61170214166074e+00    7.81754542139443e-03    2.68537275820604e-03    9.90518767642019e-04
01.01    5.85819989631022e+00    8.28039051120926e-03    2.82531477012166e-03    1.05458964786791e-03
01.02    6.11161151336957e+00    8.77225709185997e-03    2.97082960147386e-03    1.12316777569194e-03
01.03    6.37181844824942e+00    9.29533803821073e-03    3.12190959218751e-03    1.19664303645062e-03
01.04    6.63867578628251e+00    9.85193783461106e-03    3.27851367854220e-03    1.27543793269461e-03
01.05    6.91201902077761e+00    1.04444341291762e-02    3.44057613957801e-03    1.36000477576809e-03
01.06    7.19167523673510e+00    1.10752488730822e-02    3.60802480733195e-03    1.45082331608452e-03
01.07    7.47747731753629e+00    1.17468554925410e-02    3.78080989489193e-03    1.54840208581134e-03
01.08    7.76927744914137e+00    1.24618516236068e-02    3.95894218641200e-03    1.65328747447443e-03
01.09    8.06695427466185e+00    1.32231177941658e-02    4.14253614657599e-03    1.76608354836534e-03
01.10    8.37040766139597e+00    1.40340547144999e-02    4.33185085505591e-03    1.88748206822577e-03
01.11    8.67953675338435e+00    1.48988503085616e-02    4.52732187757615e-03    2.01829630813684e-03
01.12    8.99420113818724e+00    1.58226837324931e-02    4.72958187568526e-03    2.15948574957958e-03
01.13    9.31417092663850e+00    1.68117473547073e-02    4.93947749519308e-03    2.31215442975715e-03
01.14    9.63907757835252e+00    1.78729809371760e-02    5.15810405709020e-03    2.47750692514614e-03
01.15    9.96838099830959e+00    1.90134771517821e-02    5.38689474307534e-03    2.65675498922381e-03
01.16    1.03013682968116e+01    2.02396311142399e-02    5.62781019147433e-03    2.85098467833317e-03
01.17    1.06371937428776e+01    2.15562406701868e-02    5.88366921180606e-03    3.06101489634103e-03
01.18    1.09749595579935e+01    2.29658732922917e-02    6.15863597985442e-03    3.28729683292389e-03
01.19    1.13138259273475e+01    2.44688473392944e-02    6.45883303406014e-03    3.52991148063198e-03
01.20    1.16531289380828e+01    2.60640946018047e-02    6.79298725999448e-03    3.78871250442685e-03
01.21    1.19924807151984e+01    2.77509684312354e-02    7.17294968368236e-03    4.06363193031455e-03
01.22    1.23318261311702e+01    2.95317812535383e-02    7.61387862211588e-03    4.35512065304623e-03
01.23    1.26714358982503e+01    3.14145603583456e-02    8.13386420046271e-03    4.66464477390614e-03
01.24    1.30118228436973e+01    3.34152924173288e-02    8.75282240917567e-03    4.99511690427644e-03
01.25    1.33535753974693e+01    3.55588716548785e-02    9.49061078584049e-03    5.35112349137908e-03
01.26    1.36971081695605e+01    3.78781169049219e-02    1.03645110615214e-02    5.73882612304555e-03
01.27    1.40423362013730e+01    4.04105789712261e-02    1.13864656581304e-02    6.16546982605112e-03
01.28    1.43882903511107e+01    4.31933643337654e-02    1.25607064640532e-02    6.63851770903233e-03
01.29    1.47327084085369e+01    4.62567554138490e-02    1.38826234343169e-02    7.16453283226185e-03
01.30    1.50716592051462e+01    4.96178708760870e-02    1.53398354240983e-02    7.74802267378359e-03
01.31    1.53992811400513e+01    5.32758818507479e-02    1.69164172111486e-02    8.39052574301876e-03
01.32    1.57077370603731e+01    5.72102891833577e-02    1.86011088372452e-02    9.09023423077820e-03
01.33    1.59874976473625e+01    6.13834269699502e-02    2.04001014694381e-02    9.84239960776566e-03
01.34    1.62280571438987e+01    6.57477361188763e-02    2.23546728721790e-02    1.06406595293031e-02
01.35    1.64191516896534e+01    7.02575107545083e-02    2.45635725864613e-02    1.14792679220499e-02
01.36    1.65524919819417e+01    7.48839139437241e-02    2.72096971943103e-02    1.23560300742269e-02
01.37    1.66239406306495e+01    7.96312564107164e-02    3.05903124469363e-02    1.32755739308714e-02
01.38    1.66359573344737e+01    8.45519797680404e-02    3.51498463691535e-02    1.42524616785579e-02
01.39    1.65999951010605e+01    8.97576338559057e-02    4.15139984795016e-02    1.53135898814286e-02
01.40    1.65383727403665e+01    9.54234166405538e-02    5.05236753861069e-02    1.64993593159622e-02
01.41    1.64850085958056e+01    1.01784558198291e-01    6.32674815744338e-02    1.78632165431931e-02
01.42    1.64843399087229e+01    1.09123883837324e-01    8.11118875512659e-02    1.94693677762527e-02
01.43    1.65878531888794e+01    1.17751201878983e-01    1.05727601781124e-01    2.13887205882455e-02
01.44    1.68480033992865e+01    1.27976571133667e-01    1.39108825037659e-01    2.36933858777686e-02
01.45    1.73099611320078e+01    1.40080723827667e-01    1.83579783492166e-01    2.64502850948064e-02
01.46    1.80026274340981e+01    1.54286912415387e-01    2.41780023068100e-01    2.97145713007990e-02
01.47    1.89316884433231e+01    1.70739566243516e-01    3.16615871394313e-01    3.35238079513425e-02
01.48    2.00788075299283e+01    1.89495834685816e-01    4.11161102084009e-01    3.78940814520643e-02
01.49    2.14116193469683e+01    2.10536483879110e-01    5.28483205662293e-01    4.28195013215838e-02
01.50    2.29088910337247e+01    2.33802959936944e-01    6.71368947111860e-01    4.82771308810565e-02
01.51    2.46062563127792e+01    2.59265591027143e-01    8.41951200896363e-01    5.42396108962281e-02
01.52    2.66695899052352e+01    2.87023121671418e-01    1.04128020479630e+00    6.06969251266557e-02
01.53    2.94977582500836e+01    3.17430625305194e-01    1.26885535634902e+00    6.76879615619357e-02
01.54    3.38461934863923e+01    3.51249154142401e-01    1.52215697783023e+00    7.53404270810667e-02
01.55    4.09589064226041e+01    3.89801349439288e-01    1.79646409460877e+00    8.39138675919175e-02
01.56    5.26944986157346e+01    4.35096628052570e-01    2.08534202782456e+00    9.38350676149212e-02
01.57    7.16219569809302e+01    4.89873362252497e-01    2.38198040310129e+00    1.05710102279814e-01
01.58    1.01075198285635e+02    5.57507924660210e-01    2.68160373336401e+00    1.20296492262269e-01
01.59    1.45209741665055e+02    6.41743108743248e-01    2.98554849324795e+00    1.38421832434072e-01
01.60    2.09149437402452e+02    7.46200679900252e-01    3.30746222623330e+00    1.60843769984843e-01
01.61    2.99310148644865e+02    8.73676764942210e-01    3.68119940436867e+00    1.88060787246746e-01
01.62    4.23967824646608e+02    1.02527365656545e+00    4.16914170602093e+00    2.20100867102784e-01
01.63    5.94083396732481e+02    1.19948838254377e+00    4.86900960199875e+00    2.56330690656785e-01
01.64    8.24245380626209e+02    1.39144510020720e+00    5.91640689576520e+00    2.95336468611836e-01
01.65    1.13335451949823e+03    1.59250656209544e+00    7.47968929737947e+00    3.34924624370499e-01
01.66    1.54445489093076e+03    1.79049893908765e+00    9.74407524883047e+00    3.72273596716063e-01
01.67    2.08304411261298e+03    1.97070649770553e+00    1.28836617183713e+01    4.04238455093497e-01
01.68    2.77339801141115e+03    2.11763665474135e+00    1.70231638782333e+01    4.27774481315369e-01
01.69    3.63298023336304e+03    2.21735308999683e+00    2.21953045838322e+01    4.40413587377227e-01
01.70    4.66578166448966e+03    2.25997922244111e+00    2.83037090856785e+01    4.40707301323678e-01
01.71    5.85619306448023e+03    2.24185521616701e+00    3.51032133157441e+01    4.28548569318180e-01
01.72    7.16541223306258e+03    2.16684893066547e+00    4.22080701281816e+01    4.05303784820073e-01
01.73    8.53213109461590e+03    2.04647946475889e+00    4.91329676387851e+01    3.73721803536013e-01
01.74    9.87826899418325e+03    1.89875878031721e+00    5.53629507416933e+01    3.37628719619031e-01
01.75    1.11190710933498e+04    1.74592159389540e+00    6.04388398738591e+01    3.01455241515077e-01
01.76    1.21754851544081e+04    1.61141671259423e+00    6.40380571950688e+01    2.69669371930420e-01
01.77    1.29859199852867e+04    1.51661903131411e+00    6.60299199737855e+01    2.46197296866100e-01
01.78    1.35146167727368e+04    1.47771812548009e+00    6.64905342422585e+01    2.33911871266868e-01
01.79    1.37548894395939e+04    1.50319912833723e+00    6.56736663202480e+01    2.34255423011225e-01
01.80    1.37270053142965e+04    1.59226820857378e+00    6.39463691107462e+01    2.47045510233901e-01
01.81    1.34719054395277e+04    1.73449456211210e+00    6.17072589608388e+01    2.70490514937671e-01
01.82    1.30428200527541e+04    1.91083430448557e+00    5.93082577661332e+01    3.01417062202357e-01
01.83    1.24969227885754e+04    2.09603574558379e+00    5.69970439574837e+01    3.35684003518109e-01
01.84    1.18886163720754e+04    2.26218716428733e+00    5.48895791818575e+01    3.68730325553741e-01
01.85    1.12651897675755e+04    2.38289908900697e+00    5.29732642585712e+01    3.96181205146375e-01
01.86    1.06647893895956e+04    2.43740194135443e+00    5.11344669334823e+01    4.14423575058906e-01
01.87    1.01161363772532e+04    2.41377489568390e+00    4.92007870042452e+01    4.21064444701138e-01
01.88    9.63925023345233e+03    2.31064908290513e+00    4.69881914307966e+01    4.15202588271873e-01
01.89    9.24652018570235e+03    2.13704440634122e+00    4.43446467780101e+01    3.97476239486070e-01
01.90    8.94367963203518e+03    1.91042801869893e+00    4.11838528865849e+01    3.69889597360672e-01
01.91    8.73050628564029e+03    1.65349425460274e+00    3.75048936500657e+01    3.35460408985610e-01
01.92    8.60133943380629e+03    1.39042569758939e+00    3.33959731822889e+01    2.97760495892925e-01
01.93    8.54571566656257e+03    1.14343449264302e+00    2.90227224866890e+01    2.60434449215566e-01
01.94    8.54953416809344e+03    9.30223302655628e-01    2.46041188476384e+01    2.26778662356837e-01
01.95    8.59714737023984e+03    7.62697157323236e-01    2.03818060091800e+01    1.99443025612407e-01
