# RiF 1e-20 (cm^2/W)
# 1w(eV) RpP                     RpS                     RsP                     RsS
00.01    3.36873385302222e-08    5.54154346235648e-09    7.30622229858014e-11    2.57531075696654e-09
00.02    4.06033180659316e-08    6.68284792178335e-09    8.80802386240720e-11    3.10572132762924e-09
00.03    5.51120098433715e-08    9.07822658401202e-09    1.19591299617292e-10    4.21895559557501e-09
00.04    7.85637192272023e-08    1.29529074609445e-08    1.70539634871993e-10    6.01969588699803e-09
00.05    1.12976462892016e-07    1.86440286499380e-08    2.45328039616901e-10    8.66464033750675e-09
00.06    1.61028199710498e-07    2.65999813058871e-08    3.49804107752236e-10    1.23622007597499e-08
00.07    2.26048136161293e-07    3.73798059535093e-08    4.91245474474891e-10    1.73722247129703e-08
00.08    3.12007999898033e-07    5.16527865115143e-08    6.78345967533641e-10    2.40058111479137e-08
00.09    4.23514031124892e-07    7.01983638181413e-08    9.21204298513186e-10    3.26252752156022e-08
00.10    5.65800100278695e-07    9.39064387892591e-08    1.23131615159882e-09    4.36442941903466e-08
00.11    7.44722084447748e-07    1.23778087185351e-07    1.62156998889553e-09    5.75282464923502e-08
00.12    9.66753429978007e-07    1.60926674291488e-07    2.10624629888882e-09    7.47947368201680e-08
00.13    1.23898163115756e-06    2.06579334262457e-07    2.70101983737601e-09    9.60142928494826e-08
00.14    1.56910538381611e-06    2.62078773679741e-07    3.42296430880659e-09    1.21811212441791e-07
00.15    1.96543212248295e-06    3.28885358926051e-07    4.29055863346391e-09    1.52864545949677e-07
00.16    2.43687576925969e-06    4.08579466077700e-07    5.32369475144585e-09    1.89909200341530e-07
00.17    2.99295451223768e-06    5.02864069178064e-07    6.54368620624996e-09    2.33737156366760e-07
00.18    3.64378856905410e-06    6.13567567405793e-07    7.97327772031862e-09    2.85198798112715e-07
00.19    4.40009786582534e-06    7.42646846769972e-07    9.63665544492147e-09    3.45204352581806e-07
00.20    5.27319963853911e-06    8.92190590038834e-07    1.15594579010483e-08    4.14725445834624e-07
00.21    6.27500591374147e-06    1.06442282853522e-06    1.37687876958723e-08    4.94796774200345e-07
00.22    7.41802092260820e-06    1.26170676842208e-06    1.62932236531702e-08    5.86517899853527e-07
00.23    8.71533837910791e-06    1.48654887486288e-06    1.91628339079878e-08    6.91055173529823e-07
00.24    1.01806387246123e-05    1.74160326181830e-06    2.24091893524688e-08    8.09643791086019e-07
00.25    1.18281862056364e-05    2.02967634761900e-06    2.60653780069178e-08    9.43589988052316e-07
00.26    1.36728259224474e-05    2.35373186650953e-06    3.01660200257460e-08    1.09427338333697e-06
00.27    1.57299807265085e-05    2.71689615729421e-06    3.47472834007859e-08    1.26314947281902e-06
00.28    1.80156480304867e-05    3.12246382568293e-06    3.98469006336492e-08    1.45175228995838e-06
00.29    2.05463964937998e-05    3.57390373801648e-06    4.55041856672012e-08    1.66169723353277e-06
00.30    2.33393626759062e-05    4.07486540259710e-06    5.17600517751694e-08    1.89468408074134e-06
00.31    2.64122474990454e-05    4.62918572955832e-06    5.86570295002490e-08    2.15250018992264e-06
00.32    2.97833126809981e-05    5.24089622635353e-06    6.62392845313115e-08    2.43702390285435e-06
00.33    3.34713771027478e-05    5.91423064747677e-06    7.45526368251059e-08    2.75022816800412e-06
00.34    3.74958131603172e-05    6.65363312771331e-06    8.36445797923221e-08    3.09418438373526e-06
00.35    4.18765430669268e-05    7.46376685174886e-06    9.35643000524572e-08    3.47106648757490e-06
00.36    4.66340351953255e-05    8.34952327332634e-06    1.04362698394980e-07    3.88315529594120e-06
00.37    5.17893005260244e-05    9.31603194438449e-06    1.16092410545216e-07    4.33284312251556e-06
00.38    5.73638889833089e-05    1.03686708980483e-05    1.28807829004173e-07    4.82263867613625e-06
00.39    6.33798858487106e-05    1.15130777283591e-05    1.42565124421464e-07    5.35517226544958e-06
00.40    6.98599080662018e-05    1.27551612952974e-05    1.57422268328023e-07    5.93320132414115e-06
00.41    7.68271006098107e-05    1.41011141538254e-05    1.73439055551951e-07    6.55961627614354e-06
00.42    8.43051325913147e-05    1.55574257471560e-05    1.90677127521078e-07    7.23744676466615e-06
00.43    9.23181935845559e-05    1.71308963997064e-05    2.09199996677896e-07    7.96986827371236e-06
00.44    1.00890989886921e-04    1.88286522231411e-05    2.29073070253481e-07    8.76020918006237e-06
00.45    1.10048740797758e-04    2.06581609273913e-05    2.50363674340159e-07    9.61195825588000e-06
00.46    1.19817175120350e-04    2.26272487055721e-05    2.73141077246753e-07    1.05287726773005e-05
00.47    1.30222527731275e-04    2.47441181595902e-05    2.97476512106771e-07    1.15144865510690e-05
00.48    1.41291536365274e-04    2.70173674644945e-05    3.23443197343364e-07    1.25731200109133e-05
00.49    1.53051438471780e-04    2.94560107186128e-05    3.51116359292178e-07    1.37088889070621e-05
00.50    1.65529968496272e-04    3.20694996712096e-05    3.80573253481217e-07    1.49262151179644e-05
00.51    1.78755354938757e-04    3.48677469193329e-05    4.11893181646275e-07    1.62297375688912e-05
00.52    1.92756318168529e-04    3.78611504023221e-05    4.45157526077756e-07    1.76243238942384e-05
00.53    2.07562067900858e-04    4.10606198847676e-05    4.80449758164462e-07    1.91150829805127e-05
00.54    2.23202301401519e-04    4.44776048477665e-05    5.17855475095478e-07    2.07073782362990e-05
00.55    2.39707201862447e-04    4.81241247340644e-05    5.57462413527504e-07    2.24068418873777e-05
00.56    2.57107437095254e-04    5.20128010498491e-05    5.99360468699705e-07    2.42193901975939e-05
00.57    2.75434158844787e-04    5.61568919515072e-05    6.43641705426731e-07    2.61512398100695e-05
00.58    2.94719001977837e-04    6.05703291375165e-05    6.90400380392193e-07    2.82089252856127e-05
00.59    3.14994084809253e-04    6.52677574273860e-05    7.39732934775194e-07    3.03993178370241e-05
00.60    3.36292008878963e-04    7.02645773208203e-05    7.91737999118549e-07    3.27296456417093e-05
00.61    3.58645859803721e-04    7.55769901092226e-05    8.46516407907758e-07    3.52075154722148e-05
00.62    3.82089208148095e-04    8.12220466791933e-05    9.04171200237481e-07    3.78409361277259e-05
00.63    4.06656111755054e-04    8.72176996815021e-05    9.64807622006044e-07    4.06383435605409e-05
00.64    4.32381118134116e-04    9.35828595904442e-05    1.02853313161397e-06    4.36086278814053e-05
00.65    4.59299269620298e-04    1.00337455427031e-04    1.09545739402747e-06    4.67611624240033e-05
00.66    4.87446109277751e-04    1.07502500209871e-04    1.16569223451451e-06    5.01058348961119e-05
00.67    5.16857688583535e-04    1.15100161637592e-04    1.23935158832347e-06    5.36530808281660e-05
00.68    5.47570575971798e-04    1.23153838415866e-04    1.31655141583506e-06    5.74139195949901e-05
00.69    5.79621866345978e-04    1.31688242742186e-04    1.39740961734517e-06    6.13999933937292e-05
00.70    6.13049190783486e-04    1.40729489356830e-04    1.48204593785484e-06    6.56236095070864e-05
00.71    6.47890726507012e-04    1.50305191512995e-04    1.57058190497239e-06    7.00977863005051e-05
00.72    6.84185206268040e-04    1.60444564783196e-04    1.66314076494722e-06    7.48363033042898e-05
00.73    7.21971931343572e-04    1.71178540441930e-04    1.75984741280982e-06    7.98537560522245e-05
00.74    7.61290786188401e-04    1.82539888091659e-04    1.86082829900929e-06    8.51656153935445e-05
00.75    8.02182255851065e-04    1.94563349416874e-04    1.96621130504935e-06    9.07882921798127e-05
00.76    8.44687449687997e-04    2.07285784544684e-04    2.07612551497587e-06    9.67392072375941e-05
00.77    8.88848127738754e-04    2.20746331543659e-04    2.19070095413973e-06    1.03036867790400e-04
00.78    9.34706727636703e-04    2.34986580735912e-04    2.31006827715187e-06    1.09700950784242e-04
00.79    9.82306396752855e-04    2.50050766609015e-04    2.43435838384664e-06    1.16752394602190e-04
00.80    1.03169102099976e-03    2.65985978068209e-04    2.56370203189445e-06    1.24213500182754e-04
00.81    1.08290525968688e-03    2.82842391064903e-04    2.69822939406099e-06    1.32108043053807e-04
00.82    1.13599458185026e-03    3.00673525326279e-04    2.83806952376358e-06    1.40461397255598e-04
00.83    1.19100531279771e-03    3.19536528953963e-04    2.98334974621860e-06    1.49300672744498e-04
00.84    1.24798468943548e-03    3.39492495049071e-04    3.13419486343604e-06    1.58654868234613e-04
00.85    1.30698092644209e-03    3.60606813469144e-04    3.29072620708321e-06    1.68555040837039e-04
00.86    1.36804329493871e-03    3.82949564460700e-04    3.45306050208382e-06    1.79034496003376e-04
00.87    1.43122220645540e-03    4.06595958343756e-04    3.62130846455883e-06    1.90128999731455e-04
00.88    1.49656930714514e-03    4.31626829542879e-04    3.79557322672917e-06    2.01877017518403e-04
00.89    1.56413757772204e-03    4.58129194504919e-04    3.97594841230424e-06    2.14319984400689e-04
00.90    1.63398144356635e-03    4.86196887728203e-04    4.16251585949223e-06    2.27502613266516e-04
00.91    1.70615690186757e-03    5.15931293160430e-04    4.35534279534799e-06    2.41473248794159e-04
00.92    1.78072166527406e-03    5.47442185527699e-04    4.55447851194852e-06    2.56284274613931e-04
00.93    1.85773532679485e-03    5.80848695321990e-04    4.75995047124626e-06    2.71992579225877e-04
00.94    1.93725954179036e-03    6.16280412546214e-04    4.97175987996027e-06    2.88660088434504e-04
00.95    2.01935823288943e-03    6.53878651900854e-04    5.18987674323153e-06    3.06354375824809e-04
00.96    2.10409781640050e-03    6.93797923025578e-04    5.41423420816619e-06    3.25149374024262e-04
00.97    2.19154747452418e-03    7.36207660238228e-04    5.64472192995101e-06    3.45126214339685e-04
00.98    2.28177950180907e-03    7.81294263390576e-04    5.88117791306780e-06    3.66374223131962e-04
00.99    2.37486976512575e-03    8.29263422885828e-04    6.12337828370510e-06    3.88992065583947e-04
01.00    2.47089831347002e-03    8.80342563592023e-04    6.37102446139460e-06    4.13088960028606e-04
01.01    2.56995012100360e-03    9.34783017274212e-04    6.62372909841280e-06    4.38785780251415e-04
01.02    2.67211585874623e-03    9.92861361622516e-04    6.88100387525199e-06    4.66215769813319e-04
01.03    2.77749246922054e-03    1.05487936128104e-03    7.14225529570612e-06    4.95524589994101e-04
01.04    2.88618320310740e-03    1.12116225151959e-03    7.40679605092182e-06    5.26869558298807e-04
01.05    2.99829675358948e-03    1.19205584466211e-03    7.67387891396891e-06    5.60418287922292e-04
01.06    3.11394522706002e-03    1.26792404385638e-03    7.94275635064891e-06    5.96347468319623e-04
01.07    3.23324096048957e-03    1.34914954018309e-03    8.21276190783232e-06    6.34843106219365e-04
01.08    3.35629263487973e-03    1.43614106912436e-03    8.48340002806090e-06    6.76103846069836e-04
01.09    3.48320164471894e-03    1.52934973028549e-03    8.75442349588652e-06    7.20348584999801e-04
01.10    3.61406008514809e-03    1.62929387884855e-03    9.02587695140068e-06    7.67828171796625e-04
01.11    3.74895184638487e-03    1.73658721746160e-03    9.29809622645280e-06    8.18838638625496e-04
01.12    3.88795793379860e-03    1.85195931635520e-03    9.57167681741869e-06    8.73730812361317e-04
01.13    4.03116626256696e-03    1.97625427742209e-03    9.84745655576985e-06    9.32909449686113e-04
01.14    4.17868487448753e-03    2.11039434548791e-03    1.01265854790428e-05    9.96815537211077e-04
01.15    4.33065605532290e-03    2.25530280353800e-03    1.04107675381941e-05    1.06588900991702e-03
01.16    4.48726746734077e-03    2.41179435153487e-03    1.07027357911200e-05    1.14051581829557e-03
01.17    4.64875567043746e-03    2.58045838164896e-03    1.10069590162936e-05    1.22097160070871e-03
01.18    4.81539745927746e-03    2.76157546976558e-03    1.13304807318498e-05    1.30738146701986e-03
01.19    4.98748567273714e-03    2.95511328066848e-03    1.16836891394948e-05    1.39971831013819e-03
01.20    5.16528867749426e-03    3.16083955167213e-03    1.20807437646578e-05    1.49785800093148e-03
01.21    5.34899656844763e-03    3.37856526098127e-03    1.25393802890625e-05    1.60169798953448e-03
01.22    5.53866228142883e-03    3.60849425841480e-03    1.30799024521412e-05    1.71132797771915e-03
01.23    5.73415108246014e-03    3.85161498208309e-03    1.37233479760638e-05    1.82722152717748e-03
01.24    5.93511597995113e-03    4.11003725712414e-03    1.44890477948267e-05    1.95040145650552e-03
01.25    6.14101719073227e-03    4.38716429893283e-03    1.53920206997895e-05    2.08252535404092e-03
01.26    6.35119916214022e-03    4.68760533229532e-03    1.64407836617499e-05    2.22584466619596e-03
01.27    6.56502768330518e-03    5.01677947669295e-03    1.76361606348102e-05    2.38301261338888e-03
01.28    6.78207314563371e-03    5.38023056209051e-03    1.89715245800321e-05    2.55674971922307e-03
01.29    7.00230721293690e-03    5.78275190803964e-03    2.04346495992288e-05    2.74941456814051e-03
01.30    7.22626409465911e-03    6.22749195397961e-03    2.20110732366122e-05    2.96256289731958e-03
01.31    7.45511034150852e-03    6.71525802759330e-03    2.36886997973811e-05    3.19660138630480e-03
01.32    7.69057335828131e-03    7.24424198798136e-03    2.54634310752823e-05    3.45064631222149e-03
01.33    7.93470016424007e-03    7.81035036488886e-03    2.73459365133974e-05    3.72267764043684e-03
01.34    8.18945177289970e-03    8.40823438797888e-03    2.93701984093338e-05    4.01003654263968e-03
01.35    8.45617835484929e-03    9.03299366464048e-03    3.16050055892803e-05    4.31025453646092e-03
01.36    8.73505660293168e-03    9.68239091872344e-03    3.41698624904368e-05    4.62213500468598e-03
01.37    9.02459386511517e-03    1.03592893068415e-02    3.72566554870199e-05    4.94694544521719e-03
01.38    9.32130650046135e-03    1.10739340593936e-02    4.11575749863142e-05    5.28953408596980e-03
01.39    9.61966266658169e-03    1.18456667013094e-02    4.62982234096121e-05    5.65916746240555e-03
01.40    9.91234958259314e-03    1.27036937089005e-02    5.32728172273646e-05    6.06990200518604e-03
01.41    1.01908949284122e-02    1.36866293920314e-02    6.28767352958392e-05    6.54035157967887e-03
01.42    1.04466452542102e-02    1.48406822817862e-02    7.61307290540252e-05    7.09278918074789e-03
01.43    1.06720801373344e-02    1.62165371960023e-02    9.42906101177955e-05    7.75161510944155e-03
01.44    1.08624191134286e-02    1.78651768067904e-02    1.18836183804008e-04    8.54132235873177e-03
01.45    1.10174480687193e-02    1.98330432599610e-02    1.51434475300648e-04    9.48416756285070e-03
01.46    1.11434603706062e-02    2.21570547542710e-02    1.93874818623586e-04    1.05978080774572e-02
01.47    1.12551767389003e-02    2.48601312029920e-02    2.47976634356394e-04    1.18932299633624e-02
01.48    1.13774934674643e-02    2.79480347712893e-02    3.15475422892513e-04    1.33733601302200e-02
01.49    1.15468989617549e-02    3.14084833542387e-02    3.97886599631811e-04    1.50328150947876e-02
01.50    1.18123705360037e-02    3.52137374876927e-02    4.96337490531553e-04    1.68593643724016e-02
01.51    1.22356277881381e-02    3.93279715146280e-02    6.11377621378101e-04    1.88377942622575e-02
01.52    1.28906287901298e-02    4.37202540959797e-02    7.42798333505003e-04    2.09566428900652e-02
01.53    1.38620685853396e-02    4.83830548763169e-02    8.89463962527730e-04    2.32178240605434e-02
01.54    1.52426478490519e-02    5.33547276563745e-02    1.04913965974561e-03    2.56484329375018e-02
01.55    1.71290036221682e-02    5.87422819782717e-02    1.21835170662777e-03    2.83129129258480e-02
01.56    1.96161135945904e-02    6.47380001828061e-02    1.39236796713798e-03    3.13222326196110e-02
01.57    2.27900638300219e-02    7.16212360564684e-02    1.56536202525480e-03    3.48353731526388e-02
01.58    2.67198666133449e-02    7.97371229826253e-02    1.73077416015124e-03    3.90483998373183e-02
01.59    3.14503394785513e-02    8.94469478319320e-02    1.88197082802183e-03    4.41678261159595e-02
01.60    3.69988952626742e-02    1.01050828386722e-01    2.01342748273357e-03    5.03681268125886e-02
01.61    4.33587241132132e-02    1.14691640833913e-01    2.12252999543090e-03    5.77379686172575e-02
01.62    5.05093375437126e-02    1.30257664207257e-01    2.21186205627285e-03    6.62247803505734e-02
01.63    5.84325573023068e-02    1.47307120755604e-01    2.29172552415442e-03    7.55909120514041e-02
01.64    6.71277411803845e-02    1.65038263269565e-01    2.38241473772269e-03    8.53952773080571e-02
01.65    7.66163089601167e-02    1.82322835984408e-01    2.51545205021180e-03    9.50112066799354e-02
01.66    8.69252286838277e-02    1.97808997802007e-01    2.73286053144446e-03    1.03684355359220e-01
01.67    9.80436701876570e-02    2.10084558909228e-01    3.08370242657950e-03    1.10625372916128e-01
01.68    1.09856522071247e-01    2.17876762178677e-01    3.61760556966476e-03    1.15123240902076e-01
01.69    1.22070432921818e-01    2.20254917590312e-01    4.37586265648908e-03    1.16659295182328e-01
01.70    1.34157868004706e-01    2.16799419801476e-01    5.38171501141574e-03    1.15000573867546e-01
01.71    1.45347238084846e-01    2.07705620696587e-01    6.63221347720121e-03    1.10254597169787e-01
01.72    1.54679192549215e-01    1.93802575549827e-01    8.09418631522078e-03    1.02875047440075e-01
01.73    1.61131430324478e-01    1.76481825469501e-01    9.70609770995376e-03    9.36170124224218e-02
01.74    1.63791993023260e-01    1.57546352301740e-01    1.13860378821706e-02    8.34491596746122e-02
01.75    1.62042064793280e-01    1.39001534902246e-01    1.30441804755890e-02    7.34366044183111e-02
01.76    1.55701540286625e-01    1.22816679613681e-01    1.45964828814427e-02    6.46114667963752e-02
01.77    1.45097671597982e-01    1.10687387142884e-01    1.59759045759341e-02    5.78483425564259e-02
01.78    1.31037237530788e-01    1.03827137051769e-01    1.71382785518604e-02    5.37600152995194e-02
01.79    1.14689134228445e-01    1.02812812040051e-01    1.80618891197803e-02    5.26256825014282e-02
01.80    9.74074621025668e-02    1.07504000646455e-01    1.87419844882789e-02    5.43602281389479e-02
01.81    8.05371954131117e-02    1.17049405946530e-01    1.91829909991784e-02    5.85286833106412e-02
01.82    6.52426507668367e-02    1.29984869552965e-01    1.93915128342466e-02    6.44048888653893e-02
01.83    5.23861564416889e-02    1.44416060190308e-01    1.93722841497998e-02    7.10676988637473e-02
01.84    4.24670543195347e-02    1.58265543924289e-01    1.91276635931204e-02    7.75224745362389e-02
01.85    3.56163237361725e-02    1.69551089828962e-01    1.86598047040402e-02    8.28311348089604e-02
01.86    3.16339214113728e-02    1.76653286274666e-01    1.79738885082574e-02    8.62319146119608e-02
01.87    3.00548427889820e-02    1.78529189054417e-01    1.70809437782418e-02    8.72311710672576e-02
01.88    3.02329874783480e-02    1.74836127897388e-01    1.59995037593981e-02    8.56539606002319e-02
01.89    3.14350545136913e-02    1.65945536779246e-01    1.47560838257092e-02    8.16470950893849e-02
01.90    3.29374529429752e-02    1.52847704247098e-01    1.33848281077588e-02    7.56367167939011e-02
01.91    3.41175597881596e-02    1.36969754141787e-01    1.19266577715716e-02    6.82503674275882e-02
01.92    3.45281842664293e-02    1.19945312329757e-01    1.04280390764650e-02    6.02191813892780e-02
01.93    3.39435211380834e-02    1.03380957995210e-01    8.93924799581816e-03    5.22779218244907e-02
01.94    3.23683195260733e-02    8.86613457737519e-02    7.51191123884763e-03    4.50793191380411e-02
01.95    3.00093706585984e-02    7.68225146828944e-02    6.19583878910325e-03    3.91347384930455e-02
