# RiF 1e-20 (cm^2/W)
# 1w(eV) RpP                     RpS                     RsP                     RsS
00.01    8.52445908027657e-09    4.65354712232627e-09    2.61405530551949e-09    2.16263393362520e-09
00.02    1.02706383037782e-08    5.61190281920975e-09    3.15229016861008e-09    2.60802077699623e-09
00.03    1.39326967585232e-08    7.62328850777829e-09    4.28189874958698e-09    3.54279718717675e-09
00.04    1.98490149698810e-08    1.08767876268315e-08    6.10900317922265e-09    5.05484607967854e-09
00.05    2.85247321597793e-08    1.56554252414021e-08    8.79243299758255e-09    7.27571443992717e-09
00.06    4.06291248515007e-08    2.23356055403927e-08    1.25433900102481e-08    1.03803546042078e-08
00.07    5.69925408198043e-08    3.13865905993360e-08    1.76251282524459e-08    1.45868842248723e-08
00.08    7.86031130942447e-08    4.33701415656943e-08    2.43527189418823e-08    2.01564231384515e-08
00.09    1.06603453071793e-07    5.89404246501642e-08    3.30929562650202e-08    2.73930538686943e-08
00.10    1.42287424437343e-07    7.88442406632430e-08    4.42644366117023e-08    3.66439325236884e-08
00.11    1.87097033138890e-07    1.03921596571666e-07    5.83378216230372e-08    4.82995601597513e-08
00.12    2.42619422474329e-07    1.35106609164531e-07    7.58362783430354e-08    6.27942087018473e-08
00.13    3.10583893236284e-07    1.73428711079495e-07    9.73360795842146e-08    8.06064891361090e-08
00.14    3.92858902641826e-07    2.20014125154037e-07    1.23467343981898e-07    1.02260044263707e-07
00.15    4.91448958243728e-07    2.76087572900835e-07    1.54914894923852e-07    1.28324352939354e-07
00.16    6.08491366613446e-07    3.42974199169728e-07    1.92419228323819e-07    1.59415634623327e-07
00.17    7.46252794177707e-07    4.22101692570157e-07    2.36777574133133e-07    1.96197846798894e-07
00.18    9.07125620484275e-07    5.15002601657094e-07    2.88845052389765e-07    2.39383774510896e-07
00.19    1.09362408513639e-06    6.23316843295631e-07    3.49535916928889e-07    2.89736210072100e-07
00.20    1.30838020556060e-06    7.48794414453058e-07    4.19824892999411e-07    3.48069228311470e-07
00.21    1.55413947920845e-06    8.93298301522028e-07    5.00748606247220e-07    4.15249555846934e-07
00.22    1.83375637511448e-06    1.05880761478968e-06    5.93407105858281e-07    4.92198042300505e-07
00.23    2.15018958714730e-06    1.24742093319155e-06    6.98965486172365e-07    5.79891235345398e-07
00.24    2.50649710793662e-06    1.46135989942570e-06    8.18655609257099e-07    6.79363065222379e-07
00.25    2.90583104516815e-06    1.70297303163081e-06    9.53777931725544e-07    7.91706642021137e-07
00.26    3.35143225443484e-06    1.97473982649197e-06    1.10570344107294e-06    9.18076174739342e-07
00.27    3.84662472892403e-06    2.27927508767338e-06    1.27587570057450e-06    1.05968901273335e-06
00.28    4.39480977477543e-06    2.61933356041797e-06    1.46581301266742e-06    1.21782782386222e-06
00.29    4.99945995244107e-06    2.99781483594566e-06    1.67711069819850e-06    1.39384290899484e-06
00.30    5.66411283504653e-06    3.41776857282631e-06    1.91144349654721e-06    1.58915466819148e-06
00.31    6.39236450508426e-06    3.88240002679984e-06    2.17056808913856e-06    1.80525622167934e-06
00.32    7.18786288286616e-06    4.39507593646266e-06    2.45632573687285e-06    2.04371619378414e-06
00.33    8.05430084152629e-06    4.95933077900216e-06    2.77064506665949e-06    2.30618167705135e-06
00.34    8.99540917078259e-06    5.57887341968598e-06    3.11554498171256e-06    2.59438137532737e-06
00.35    1.00149493333935e-05    6.25759419964642e-06    3.49313772191248e-06    2.91012894779650e-06
00.36    1.11167060848936e-05    6.99957247111917e-06    3.90563208108799e-06    3.25532655677604e-06
00.37    1.23044799273015e-05    7.80908462984180e-06    4.35533678880345e-06    3.63196864245299e-06
00.38    1.35820793726755e-05    8.69061260024116e-06    4.84466406343046e-06    4.04214592651024e-06
00.39    1.49533130184897e-05    9.64885288774920e-06    5.37613333789083e-06    4.48804966499873e-06
00.40    1.64219814305096e-05    1.06887261412794e-05    5.95237517395175e-06    4.97197616333366e-06
00.41    1.79918688521907e-05    1.18153873048832e-05    6.57613536779666e-06    5.49633156795967e-06
00.42    1.96667346830825e-05    1.30342363926639e-05    7.25027922159943e-06    6.06363695484123e-06
00.43    2.14503048863041e-05    1.43509299117745e-05    7.97779603102113e-06    6.67653373648024e-06
00.44    2.33462632265075e-05    1.57713930301765e-05    8.76180373751775e-06    7.33778942007672e-06
00.45    2.53582424005783e-05    1.73018324790548e-05    9.60555380028729e-06    8.05030373212635e-06
00.46    2.74898151213163e-05    1.89487503281284e-05    1.05124362530560e-05    8.81711515433084e-06
00.47    2.97444850964224e-05    2.07189586088144e-05    1.14859850013527e-05    9.64140788215873e-06
00.48    3.21256779427552e-05    2.26195949452611e-05    1.25298833456536e-05    1.05265192466610e-05
00.49    3.46367319928900e-05    2.46581391462549e-05    1.36479697882467e-05    1.14759476178005e-05
00.50    3.72808891128413e-05    2.68424309205238e-05    1.48442440919368e-05    1.24933608146271e-05
00.51    4.00612853078163e-05    2.91806887840778e-05    1.61228736141361e-05    1.35826050893367e-05
00.52    4.29809414821441e-05    3.16815300189100e-05    1.74882000047801e-05    1.47477146336007e-05
00.53    4.60427539655569e-05    3.43539922523273e-05    1.89447460496119e-05    1.59929218015365e-05
00.54    4.92494852628783e-05    3.72075561750274e-05    2.04972229518875e-05    1.73226679221069e-05
00.55    5.26037547220030e-05    4.02521701804717e-05    2.21505377996987e-05    1.87416149466737e-05
00.56    5.61080294066304e-05    4.34982765072014e-05    2.39098013357975e-05    2.02546578471324e-05
00.57    5.97646150306512e-05    4.69568394045062e-05    2.57803360370046e-05    2.18669379251961e-05
00.58    6.35756469823434e-05    5.06393751633721e-05    2.77676845606346e-05    2.35838570931001e-05
00.59    6.75430816938032e-05    5.45579843385567e-05    2.98776183367132e-05    2.54110931281506e-05
00.60    7.16686878955427e-05    5.87253863754586e-05    3.21161465945608e-05    2.73546162055339e-05
00.61    7.59540384117775e-05    6.31549563113999e-05    3.44895257716801e-05    2.94207065046546e-05
00.62    8.04005018819452e-05    6.78607644759350e-05    3.70042692106762e-05    3.16159732796156e-05
00.63    8.50092353495846e-05    7.28576189279187e-05    3.96671572363693e-05    3.39473753101438e-05
00.64    8.97811766717740e-05    7.81611110215530e-05    4.24852476432696e-05    3.64222428647474e-05
00.65    9.47170383853208e-05    8.37876647965113e-05    4.54658865109019e-05    3.90483013498481e-05
00.66    9.98173019354585e-05    8.97545902042054e-05    4.86167190793344e-05    4.18336966483295e-05
00.67    1.05082212823837e-04    9.60801405438181e-05    5.19457009740252e-05    4.47870223014269e-05
00.68    1.10511776498745e-04    1.02783574484099e-04    5.54611094707164e-05    4.79173487784376e-05
00.69    1.16105755061772e-04    1.09885223105785e-04    5.91715549882047e-05    5.12342551569778e-05
00.70    1.21863664696200e-04    1.17406562219462e-04    6.30859927010540e-05    5.47478634482189e-05
00.71    1.27784773699017e-04    1.25370290319912e-04    6.72137346020426e-05    5.84688759720011e-05
00.72    1.33868101371641e-04    1.33800412866112e-04    7.15644615337144e-05    6.24086160392530e-05
00.73    1.40112418948821e-04    1.42722334405721e-04    7.61482354416598e-05    6.65790725333073e-05
00.74    1.46516252567675e-04    1.52162958161394e-04    8.09755113800375e-05    7.09929481045694e-05
00.75    1.53077888257592e-04    1.62150794594224e-04    8.60571493069537e-05    7.56637117024325e-05
00.76    1.59795381204061e-04    1.72716080274538e-04    9.14044248810882e-05    8.06056554179106e-05
00.77    1.66666567468731e-04    1.83890907303141e-04    9.70290396547841e-05    8.58339565098939e-05
00.78    1.73689077979333e-04    1.95709364622110e-04    1.02943130135529e-04    9.13647449680762e-05
00.79    1.80860356927550e-04    2.08207693695773e-04    1.09159275202189e-04    9.72151779247594e-05
00.80    1.88177681662491e-04    2.21424458789189e-04    1.15690501984061e-04    1.03403521576264e-04
00.81    1.95638188524086e-04    2.35400735657180e-04    1.22550289231891e-04    1.09949242085645e-04
00.82    2.03238903354943e-04    2.50180319666326e-04    1.29752567421054e-04    1.16873106081898e-04
00.83    2.10976782291940e-04    2.65809956830646e-04    1.37311714617948e-04    1.24197292241193e-04
00.84    2.18848763026287e-04    2.82339601115812e-04    1.45242546630418e-04    1.31945515527735e-04
00.85    2.26851829379351e-04    2.99822700235675e-04    1.53560300141010e-04    1.40143165056165e-04
00.86    2.34983092731013e-04    3.18316515873353e-04    1.62280606685564e-04    1.48817458641327e-04
00.87    2.43239889491358e-04    3.37882480942734e-04    1.71419454844653e-04    1.57997615261371e-04
00.88    2.51619900086589e-04    3.58586600894791e-04    1.80993138053717e-04    1.67715049211738e-04
00.89    2.60121292090710e-04    3.80499906594030e-04    1.91018183043955e-04    1.78003589366049e-04
00.90    2.68742892836910e-04    4.03698970235082e-04    2.01511254889596e-04    1.88899729346767e-04
00.91    2.77484399338036e-04    4.28266498926849e-04    2.12489032569837e-04    2.00442914849991e-04
00.92    2.86346627847076e-04    4.54292017465206e-04    2.23968051867890e-04    2.12675874158307e-04
00.93    2.95331807516616e-04    4.81872652211212e-04    2.35964511558886e-04    2.25644996677575e-04
00.94    3.04443916498847e-04    5.11114027863952e-04    2.48494040763014e-04    2.39400765585226e-04
00.95    3.13689062470782e-04    5.42131296138030e-04    2.61571425133881e-04    2.53998254231753e-04
00.96    3.23075905659790e-04    5.75050331548820e-04    2.75210288063912e-04    2.69497704692102e-04
00.97    3.32616136164105e-04    6.10009138804642e-04    2.89422721627323e-04    2.85965211028063e-04
00.98    3.42325021696990e-04    6.47159513884149e-04    3.04218858096869e-04    3.03473530416215e-04
00.99    3.52222054175726e-04    6.86668935604659e-04    3.19606371079487e-04    3.22103013973266e-04
01.00    3.62331718492902e-04    7.28722551128900e-04    3.35589899679178e-04    3.41942593785962e-04
01.01    3.72684362582085e-04    7.73524933420682e-04    3.52170428250910e-04    3.63090675524883e-04
01.02    3.83317053746659e-04    8.21301146021874e-04    3.69344721243511e-04    3.85655708478075e-04
01.03    3.94274172561567e-04    8.72296650972761e-04    3.87105014864190e-04    4.09756204067437e-04
01.04    4.05607365515416e-04    9.26775843382300e-04    4.05439254822317e-04    4.35520083626448e-04
01.05    4.17374430431566e-04    9.85019608274298e-04    4.24332205521632e-04    4.63083528787274e-04
01.06    4.29636796079938e-04    1.04732320390984e-03    4.43767707209209e-04    4.92589943646615e-04
01.07    4.42455524304805e-04    1.11399675610009e-03    4.63732200138140e-04    5.24190114488095e-04
01.08    4.55886255165740e-04    1.18537114421154e-03    4.84219333994198e-04    5.58044900626687e-04
01.09    4.69974160246804e-04    1.26181134100802e-03    5.05235095496886e-04    5.94331457191704e-04
01.10    4.84750576775829e-04    1.34373680279088e-03    5.26802577009470e-04    6.33252817231286e-04
01.11    5.00233246282004e-04    1.43164449452423e-03    5.48965552483060e-04    6.75048736126487e-04
01.12    5.16431660587096e-04    1.52612569205276e-03    5.71790607486353e-04    7.20003561100187e-04
01.13    5.33357789954148e-04    1.62786482027297e-03    5.95368742224309e-04    7.68445490680712e-04
01.14    5.51040518173013e-04    1.73760948371342e-03    6.19819009460690e-04    8.20731999306401e-04
01.15    5.69539796475154e-04    1.85610704290271e-03    6.45298482698619e-04    8.77219173338146e-04
01.16    5.88954386301537e-04    1.98401447961273e-03    6.72023824713967e-04    9.38218190541584e-04
01.17    6.09415941114921e-04    2.12180242707622e-03    7.00308982448406e-04    1.00394901115628e-03
01.18    6.31062878326515e-04    2.26968645670492e-03    7.30620455030031e-04    1.07450728917930e-03
01.19    6.53990444779022e-04    2.42762350356925e-03    7.63646189208069e-04    1.14986288511340e-03
01.20    6.78178335304387e-04    2.59540427277945e-03    8.00367065794716e-04    1.22990501024024e-03
01.21    7.03403645644444e-04    2.77285228064200e-03    8.42112590520526e-04    1.31453930553720e-03
01.22    7.29154048643453e-04    2.96010998847280e-03    8.90577019694305e-04    1.40382751621649e-03
01.23    7.54562421870676e-04    3.15795918654604e-03    9.47771451907102e-04    1.49814420472883e-03
01.24    7.78388013450565e-04    3.36809615383869e-03    1.01589371474468e-03    1.59831187506291e-03
01.25    7.99069008312055e-04    3.59327170356147e-03    1.09711226245224e-03    1.70567059942410e-03
01.26    8.14866186383648e-04    3.83721890188902e-03    1.19328199921881e-03    1.82204415647747e-03
01.27    8.24107476300768e-04    4.10432840336881e-03    1.30563636159279e-03    1.94958259047658e-03
01.28    8.25530445613620e-04    4.39908784381572e-03    1.43452673572847e-03    2.09048855323499e-03
01.29    8.18707319131193e-04    4.72536655984708e-03    1.57930160243255e-03    2.24666650773370e-03
01.30    8.04529149980442e-04    5.08568539508881e-03    1.73842824853647e-03    2.41936276367436e-03
01.31    7.85727781620991e-04    5.48064888746427e-03    1.90995667724922e-03    2.60888313448278e-03
01.32    7.67431039603956e-04    5.90872192078365e-03    2.09240933254500e-03    2.81447787804568e-03
01.33    7.57778487081554e-04    6.36649888109622e-03    2.28615348224041e-03    3.03446735006180e-03
01.34    7.68666650047591e-04    6.84954181147507e-03    2.49527736807680e-03    3.26664687448915e-03
01.35    8.16739815044638e-04    7.35376471249562e-03    2.72995063196352e-03    3.50896049504710e-03
01.36    9.24795207382829e-04    7.87723017438744e-03    3.00921048470404e-03    3.76037838981695e-03
01.37    1.12382759028497e-03    8.42212250160333e-03    3.36408396193016e-03    4.02186215233130e-03
01.38    1.45598428195799e-03    8.99658925553744e-03    3.84093018786286e-03    4.29726615193408e-03
01.39    1.97871324605337e-03    9.61611698274224e-03    4.50485532944779e-03    4.59400986173781e-03
01.40    2.77040878262192e-03    1.03041353410873e-02    5.44302698169206e-03    4.92336997188016e-03
01.41    3.93799740528738e-03    1.10916243305812e-02    6.76773624885851e-03    5.30028128878409e-03
01.42    5.62707697264304e-03    1.20156213258656e-02    8.61909599803042e-03    5.74259762784588e-03
01.43    8.03513579301653e-03    1.31166730752401e-02    1.11672075409338e-02    6.26984028784972e-03
01.44    1.14279557092163e-02    1.44354340112226e-02    1.46134562846506e-02    6.90154177686418e-03
01.45    1.61586010272835e-02    1.60087358343934e-02    1.91903831475084e-02    7.65535353871225e-03
01.46    2.26873271272187e-02    1.78655394821239e-02    2.51592939694934e-02    8.54512572516042e-03
01.47    3.15991398312707e-02    2.00232932162050e-02    3.28044071932207e-02    9.57921896992573e-03
01.48    4.36135851636429e-02    2.24853324471917e-02    4.24219497575261e-02    1.07593575075588e-02
01.49    5.95787468132110e-02    2.52400678711137e-02    5.43019898039607e-02    1.20803744675636e-02
01.50    8.04398921718088e-02    2.82629274713599e-02    6.87005910252096e-02    1.35313144011148e-02
01.51    1.07177801062715e-01    3.15221002292354e-02    8.58026237370928e-02    1.50984417230495e-02
01.52    1.40719014577149e-01    3.49886786771525e-02    1.05679480528582e-01    1.67704936352908e-02
01.53    1.81816208101714e-01    3.86510987821542e-02    1.28243695769995e-01    1.85461683685703e-02
01.54    2.30905903379780e-01    4.25326284258352e-02    1.53204659223189e-01    2.04432794527654e-02
01.55    2.88003406272204e-01    4.67091090142682e-02    1.80051977396638e-01    2.25082028986128e-02
01.56    3.52718451137323e-01    5.13220920309957e-02    2.08102533420217e-01    2.48230941130068e-02
01.57    4.24443633762348e-01    5.65806312139000e-02    2.36628164791302e-01    2.75072249074708e-02
01.58    5.02790244070656e-01    6.27454655568576e-02    2.65084031603284e-01    3.07088626761964e-02
01.59    5.88421489089391e-01    7.00917970932728e-02    2.93491606367531e-01    3.45852877585023e-02
01.60    6.84391810035806e-01    7.88513160327162e-02    3.23016737193151e-01    3.92709247937248e-02
01.61    7.97906711856581e-01    8.91402826585212e-02    3.56701841553774e-01    4.48370612563553e-02
01.62    9.42218764094085e-01    1.00886637257003e-01    4.00233463044380e-01    5.12503047339974e-02
01.63    1.13820052092781e+00    1.13773066832167e-01    4.62566139096684e-01    5.83394869768192e-02
01.64    1.41492980782681e+00    1.27213102284332e-01    5.56148177539796e-01    6.57811026512409e-02
01.65    1.80848018064430e+00    1.40373111398335e-01    6.96436959198897e-01    7.31110794254646e-02
01.66    2.35820833536602e+00    1.52244887219133e-01    9.00424000192067e-01    7.97658396064878e-02
01.67    3.10026923214684e+00    1.61763066083089e-01    1.18405241227259e+00    8.51492559984313e-02
01.68    4.05885666178985e+00    1.67951508673138e-01    1.55870028970933e+00    8.87159450105424e-02
01.69    5.23662777736906e+00    1.70075529939916e-01    2.02727945682569e+00    9.00570167728990e-02
01.70    6.60663905979331e+00    1.67773977030340e-01    2.58085573596376e+00    8.89729448993565e-02
01.71    8.10850476502358e+00    1.61147167447801e-01    3.19687900116627e+00    8.55199327213582e-02
01.72    9.65104635639359e+00    1.50783397901091e-01    3.83997416284573e+00    8.00206558049788e-02
01.73    1.11223302681822e+01    1.37716789262527e-01    4.46572936129302e+00    7.30364860056342e-02
01.74    1.24059531820793e+01    1.23320403211469e-01    5.02710949385126e+00    6.53048198002099e-02
01.75    1.34003496579810e+01    1.09148639484387e-01    5.48225900330492e+00    5.76506351673638e-02
01.76    1.40365478552421e+01    9.67501316479089e-02    5.80185596963663e+00    5.08849719407114e-02
01.77    1.42898063898285e+01    8.74757490267576e-02    5.97411315481923e+00    4.57043215669981e-02
01.78    1.41820809237092e+01    8.23062821627222e-02    6.00608556874285e+00    4.26041992412220e-02
01.79    1.37748291878645e+01    8.17219606345227e-02    5.92097424853380e+00    4.18180009084922e-02
01.80    1.31543564280523e+01    8.56316684505652e-02    5.75224441830080e+00    4.32890538253460e-02
01.81    1.24137780625050e+01    9.33736653207907e-02    5.53619946979126e+00    4.66797974904246e-02
01.82    1.16361490716199e+01    1.03791701246929e-01    5.30490656341638e+00    5.14174594232434e-02
01.83    1.08823809124137e+01    1.15380660158383e-01    5.08103222764943e+00    5.67707330160874e-02
01.84    1.01857573253696e+01    1.26484938609691e-01    4.87541957102364e+00    6.19473506666537e-02
01.85    9.55291841046901e+00    1.35522425882484e-01    4.68743196480438e+00    6.61988335012847e-02
01.86    8.96973877598412e+00    1.41200037571136e-01    4.50747004302898e+00    6.89170679632842e-02
01.87    8.40987581263421e+00    1.42685818499235e-01    4.32076973840895e+00    6.97083940432835e-02
01.88    7.84383338941366e+00    1.39708637406390e-01    4.11158112088060e+00    6.84344354840213e-02
01.89    7.24685904192134e+00    1.32569259562062e-01    3.86698011915045e+00    6.52145751217985e-02
01.90    6.60457418961714e+00    1.22063553018030e-01    3.57976051604994e+00    6.03917212453237e-02
01.91    5.91581696953137e+00    1.09335925739764e-01    3.25006389167452e+00    5.44694716486436e-02
01.92    5.19268484480183e+00    9.56942184729083e-02    2.88561855604015e+00    4.80334167729583e-02
01.93    4.45814663375239e+00    8.24223531140387e-02    2.50065575058238e+00    4.16708744125410e-02
01.94    3.74193486792824e+00    7.06242764056323e-02    2.11378126108450e+00    3.59022514948349e-02
01.95    3.07576469225546e+00    6.11227549298225e-02    1.74530712894340e+00    3.11336382271586e-02
