# RiF 1e-20 (cm^2/W)
# 1w(eV) RpP                     RpS                     RsP                     RsS
00.01    3.34200081957230e-08    4.65354712232627e-09    2.04265957928613e-11    2.16263393362520e-09
00.02    4.02807642633781e-08    5.61190281920975e-09    2.46242752422709e-11    2.60802077699623e-09
00.03    5.46735030794058e-08    7.62328850777829e-09    3.34316092832511e-11    3.54279718717675e-09
00.04    7.79375235347164e-08    1.08767876268315e-08    4.76708557265100e-11    5.05484607967854e-09
00.05    1.12074343147487e-07    1.56554252414021e-08    6.85714662917567e-11    7.27571443992717e-09
00.06    1.59739932768357e-07    2.23356055403927e-08    9.77660565086004e-11    1.03803546042078e-08
00.07    2.24236013909979e-07    3.13865905993360e-08    1.37286050382258e-10    1.45868842248723e-08
00.08    3.09501306230514e-07    4.33701415656943e-08    1.89557511116499e-10    2.01564231384515e-08
00.09    4.20103468041311e-07    5.89404246501642e-08    2.57397638439857e-10    2.73930538686943e-08
00.10    5.61232135885819e-07    7.88442406632431e-08    3.44012154315833e-10    3.66439325236884e-08
00.11    7.38693194874928e-07    1.03921596571666e-07    4.52993679555799e-10    4.82995601597513e-08
00.12    9.58904206402705e-07    1.35106609164531e-07    5.88321009802041e-10    6.27942087018473e-08
00.13    1.22889072740718e-06    1.73428711079495e-07    7.54359175341939e-10    8.06064891361090e-08
00.14    1.55628327951540e-06    2.20014125154037e-07    9.55860145811264e-10    1.02260044263707e-07
00.15    1.94931468061820e-06    2.76087572900835e-07    1.19796387111262e-09    1.28324352939354e-07
00.16    2.41681756701534e-06    3.42974199169728e-07    1.48619972941447e-09    1.59415634623327e-07
00.17    2.96822192532456e-06    4.22101692570157e-07    1.82648808713079e-09    1.96197846798894e-07
00.18    3.61355259100520e-06    5.15002601657094e-07    2.22514208655342e-09    2.39383774510896e-07
00.19    4.36342664058537e-06    6.23316843295631e-07    2.68886956899388e-09    2.89736210072100e-07
00.20    5.22905068823614e-06    7.48794414453058e-07    3.22477511383315e-09    3.48069228311470e-07
00.21    6.22221804005755e-06    8.93298301522028e-07    3.84036225504409e-09    4.15249555846934e-07
00.22    7.35530576064259e-06    1.05880761478968e-06    4.54353570042035e-09    4.92198042300505e-07
00.23    8.64127158404445e-06    1.24742093319155e-06    5.34260381823229e-09    5.79891235345398e-07
00.24    1.00936507662795e-05    1.46135989942570e-06    6.24628105683605e-09    6.79363065222379e-07
00.25    1.17265527522601e-05    1.70297303163081e-06    7.26369062915044e-09    7.91706642021137e-07
00.26    1.35546577887732e-05    1.97473982649197e-06    8.40436724684649e-09    9.18076174739342e-07
00.27    1.55932133649938e-05    2.27927508767338e-06    9.67826000950688e-09    1.05968901273335e-06
00.28    1.78580305404007e-05    2.61933356041797e-06    1.10957355705366e-08    1.21782782386222e-06
00.29    2.03654801272706e-05    2.99781483594566e-06    1.26675811951066e-08    1.39384290899484e-06
00.30    2.31324888088034e-05    3.41776857282631e-06    1.44050081531784e-08    1.58915466819148e-06
00.31    2.61765350472091e-05    3.88240002679984e-06    1.63196549047783e-08    1.80525622167934e-06
00.32    2.95156449270283e-05    4.39507593646266e-06    1.84235901563772e-08    2.04371619378414e-06
00.33    3.31683879085114e-05    4.95933077900216e-06    2.07293162141651e-08    2.30618167705135e-06
00.34    3.71538725278328e-05    5.57887341968598e-06    2.32497722201714e-08    2.59438137532737e-06
00.35    4.14917420197828e-05    6.25759419964642e-06    2.59983374308181e-08    2.91012894779649e-06
00.36    4.62021699412901e-05    6.99957247111917e-06    2.89888348382172e-08    3.25532655677604e-06
00.37    5.13058558696226e-05    7.80908462984180e-06    3.22355343404601e-08    3.63196864245299e-06
00.38    5.68240209485345e-05    8.69061260024116e-06    3.57531563574890e-08    4.04214592651024e-06
00.39    6.27784034798226e-05    9.64885288774920e-06    3.95568748672895e-08    4.48804966499873e-06
00.40    6.91912543686087e-05    1.06887261412794e-05    4.36623209708539e-08    4.97197616333366e-06
00.41    7.60853325904055e-05    1.18153873048832e-05    4.80855860289124e-08    5.49633156795967e-06
00.42    8.34839003569534e-05    1.30342363926639e-05    5.28432253268526e-08    6.06363695484123e-06
00.43    9.14107184485882e-05    1.43509299117745e-05    5.79522618924107e-08    6.67653373648024e-06
00.44    9.98900414371711e-05    1.57713930301765e-05    6.34301901018632e-08    7.33778942007672e-06
00.45    1.08946612872219e-04    1.73018324790548e-05    6.92949791807876e-08    8.05030373212635e-06
00.46    1.18605660628692e-04    1.89487503281284e-05    7.55650762996455e-08    8.81711515433084e-06
00.47    1.28892892263986e-04    2.07189586088144e-05    8.22594091441434e-08    9.64140788215873e-06
00.48    1.39834490528175e-04    2.26195949452611e-05    8.93973872130961e-08    1.05265192466610e-05
00.49    1.51457108880564e-04    2.46581391462549e-05    9.69989038809020e-08    1.14759476178005e-05
00.50    1.63787867353553e-04    2.68424309205238e-05    1.05084337797025e-07    1.24933608146271e-05
00.51    1.76854348135916e-04    2.91806887840778e-05    1.13674551772143e-07    1.35826050893367e-05
00.52    1.90684591812911e-04    3.16815300189100e-05    1.22790900506065e-07    1.47477146336007e-05
00.53    2.05307093208812e-04    3.43539922523273e-05    1.32455225241218e-07    1.59929218015365e-05
00.54    2.20750797835068e-04    3.72075561750274e-05    1.42689862882312e-07    1.73226679221069e-05
00.55    2.37045098437338e-04    4.02521701804717e-05    1.53517643498138e-07    1.87416149466737e-05
00.56    2.54219831728990e-04    4.34982765072014e-05    1.64961890983155e-07    2.02546578471324e-05
00.57    2.72305275636220e-04    4.69568394045062e-05    1.77046419701696e-07    2.18669379251961e-05
00.58    2.91332146303854e-04    5.06393751633721e-05    1.89795536970524e-07    2.35838570931001e-05
00.59    3.11331596077078e-04    5.45579843385567e-05    2.03234031591263e-07    2.54110931281506e-05
00.60    3.32335210828098e-04    5.87253863754586e-05    2.17387168150314e-07    2.73546162055339e-05
00.61    3.54375008150906e-04    6.31549563113999e-05    2.32280687532412e-07    2.94207065046546e-05
00.62    3.77483435461536e-04    6.78607644759350e-05    2.47940800871969e-07    3.16159732796156e-05
00.63    4.01693369279242e-04    7.28576189279187e-05    2.64394185643499e-07    3.39473753101438e-05
00.64    4.27038114472519e-04    7.81611110215530e-05    2.81667983149510e-07    3.64222428647474e-05
00.65    4.53551405914887e-04    8.37876647965113e-05    2.99789792360750e-07    3.90483013498481e-05
00.66    4.81267410727278e-04    8.97545902042054e-05    3.18787644770034e-07    4.18336966483295e-05
00.67    5.10220731981083e-04    9.60801405438181e-05    3.38689977451073e-07    4.47870223014269e-05
00.68    5.40446412980550e-04    1.02783574484099e-04    3.59525591329342e-07    4.79173487784376e-05
00.69    5.71979942247145e-04    1.09885223105785e-04    3.81323612160437e-07    5.12342551569778e-05
00.70    6.04857258308073e-04    1.17406562219462e-04    4.04113448553803e-07    5.47478634482189e-05
00.71    6.39114754465137e-04    1.25370290319912e-04    4.27924770163944e-07    5.84688759720011e-05
00.72    6.74789282549179e-04    1.33800412866112e-04    4.52787489091531e-07    6.24086160392530e-05
00.73    7.11918159785984e-04    1.42722334405721e-04    4.78731743209699e-07    6.65790725333073e-05
00.74    7.50539176701151e-04    1.52162958161394e-04    5.05787872616567e-07    7.09929481045694e-05
00.75    7.90690607178311e-04    1.62150794594224e-04    5.33986384141917e-07    7.56637117024325e-05
00.76    8.32411223937691e-04    1.72716080274538e-04    5.63357872582448e-07    8.06056554179106e-05
00.77    8.75740315902275e-04    1.83890907303141e-04    5.93932930100384e-07    8.58339565098939e-05
00.78    9.20717705267102e-04    1.95709364622110e-04    6.25742036954798e-07    9.13647449680762e-05
00.79    9.67383768763086e-04    2.08207693695773e-04    6.58815429626347e-07    9.72151779247594e-05
00.80    1.01577945462972e-03    2.21424458789188e-04    6.93182974379870e-07    1.03403521576264e-04
00.81    1.06594630438759e-03    2.35400735657180e-04    7.28874034983224e-07    1.09949242085645e-04
00.82    1.11792647467602e-03    2.50180319666326e-04    7.65917311879654e-07    1.16873106081898e-04
00.83    1.17176276733494e-03    2.65809956830646e-04    8.04340674991613e-07    1.24197292241193e-04
00.84    1.22749866616509e-03    2.82339601115812e-04    8.44170938141687e-07    1.31945515527735e-04
00.85    1.28517838173031e-03    2.99822700235675e-04    8.85433592210849e-07    1.40143165056165e-04
00.86    1.34484690541227e-03    3.18316515873353e-04    9.28152495791493e-07    1.48817458641327e-04
00.87    1.40655006488858e-03    3.37882480942734e-04    9.72349479259123e-07    1.57997615261371e-04
00.88    1.47033458514764e-03    3.58586600894791e-04    1.01804392528823e-06    1.67715049211738e-04
00.89    1.53624814954380e-03    3.80499906594030e-04    1.06525225085306e-06    1.78003589366049e-04
00.90    1.60433946431115e-03    4.03698970235082e-04    1.11398730240066e-06    1.88899729346767e-04
00.91    1.67465833228226e-03    4.28266498926849e-04    1.16425759695918e-06    2.00442914849991e-04
00.92    1.74725573467453e-03    4.54292017465206e-04    1.21606644051775e-06    2.12675874158307e-04
00.93    1.82218392545153e-03    4.81872652211212e-04    1.26941091252212e-06    2.25644996677575e-04
00.94    1.89949653407223e-03    5.11114027863952e-04    1.32428073317060e-06    2.39400765585226e-04
00.95    1.97924868251266e-03    5.42131296138030e-04    1.38065702740576e-06    2.53998254231753e-04
00.96    2.06149711512070e-03    5.75050331548820e-04    1.43851088502837e-06    2.69497704692101e-04
00.97    2.14630036365004e-03    6.10009138804642e-04    1.49780158836756e-06    2.85965211028063e-04
00.98    2.23371897320097e-03    6.47159513884149e-04    1.55847425096089e-06    3.03473530416215e-04
00.99    2.32381582361860e-03    6.86668935604659e-04    1.62045661697398e-06    3.22103013973266e-04
01.00    2.41665657977822e-03    7.28722551128900e-04    1.68365476869611e-06    3.41942593785962e-04
01.01    2.51231025983423e-03    7.73524933420682e-04    1.74794830817674e-06    3.63090675524883e-04
01.02    2.61084984017847e-03    8.21301146021873e-04    1.81318616421339e-06    3.85655708478074e-04
01.03    2.71235272109085e-03    8.72296650972761e-04    1.87918535822631e-06    4.09756204067437e-04
01.04    2.81690078336230e-03    9.26775843382300e-04    1.94573540134320e-06    4.35520083626448e-04
01.05    2.92457975275050e-03    9.85019608274298e-04    2.01261059076940e-06    4.63083528787274e-04
01.06    3.03547767512756e-03    1.04732320390984e-03    2.07959075423118e-06    4.92589943646615e-04
01.07    3.14968252828647e-03    1.11399675610009e-03    2.14648803594632e-06    5.24190114488095e-04
01.08    3.26727934871145e-03    1.18537114421154e-03    2.21317380569764e-06    5.58044900626687e-04
01.09    3.38834764868941e-03    1.26181134100802e-03    2.27959759265719e-06    5.94331457191704e-04
01.10    3.51296020126152e-03    1.34373680279088e-03    2.34579086844239e-06    6.33252817231286e-04
01.11    3.64118437484493e-03    1.43164449452423e-03    2.41185418930480e-06    6.75048736126487e-04
01.12    3.77308693134676e-03    1.52612569205276e-03    2.47793594852102e-06    7.20003561100187e-04
01.13    3.90874258397634e-03    1.62786482027297e-03    2.54422259872691e-06    7.68445490680712e-04
01.14    4.04824568933732e-03    1.73760948371342e-03    2.61096810787625e-06    8.20731999306400e-04
01.15    4.19172341103419e-03    1.85610704290271e-03    2.67858993063390e-06    8.77219173338146e-04
01.16    4.33934766812085e-03    1.98401447961273e-03    2.74784384727151e-06    9.38218190541584e-04
01.17    4.49134249874188e-03    2.12180242707622e-03    2.82006107333083e-06    1.00394901115628e-03
01.18    4.64798315928200e-03    2.26968645670492e-03    2.89739368562350e-06    1.07450728917930e-03
01.19    4.80958367023796e-03    2.42762350356925e-03    2.98298236675291e-06    1.14986288511340e-03
01.20    4.97647081512893e-03    2.59540427277945e-03    3.08094874410083e-06    1.22990501024024e-03
01.21    5.14894496275023e-03    2.77285228064200e-03    3.19613690664401e-06    1.31453930553720e-03
01.22    5.32723183953984e-03    2.96010998847279e-03    3.33358880977337e-06    1.40382751621648e-03
01.23    5.51143379611909e-03    3.15795918654604e-03    3.49782605616556e-06    1.49814420472882e-03
01.24    5.70149336626267e-03    3.36809615383869e-03    3.69210089337277e-06    1.59831187506291e-03
01.25    5.89718406594759e-03    3.59327170356147e-03    3.91783828537856e-06    1.70567059942410e-03
01.26    6.09814180631305e-03    3.83721890188901e-03    4.17448694953170e-06    1.82204415647747e-03
01.27    6.30394361562664e-03    4.10432840336880e-03    4.45991670413953e-06    1.94958259047658e-03
01.28    6.51422871280615e-03    4.39908784381572e-03    4.77135142792921e-06    2.09048855323498e-03
01.29    6.72884243285608e-03    4.72536655984707e-03    5.10665132481885e-06    2.24666650773370e-03
01.30    6.94796987595365e-03    5.08568539508881e-03    5.46561578368315e-06    2.41936276367436e-03
01.31    7.17221842937958e-03    5.48064888746426e-03    5.85093751801156e-06    2.60888313448278e-03
01.32    7.40261073267632e-03    5.90872192078365e-03    6.26855075034721e-06    2.81447787804568e-03
01.33    7.64046391605173e-03    6.36649888109622e-03    6.72739070232680e-06    3.03446735006180e-03
01.34    7.88715536478749e-03    6.84954181147506e-03    7.23896870096331e-06    3.26664687448915e-03
01.35    8.14380470218176e-03    7.35376471249562e-03    7.81755762460238e-06    3.50896049504710e-03
01.36    8.41092837185028e-03    7.87723017438744e-03    8.48202849070157e-06    3.76037838981695e-03
01.37    8.68813927811547e-03    8.42212250160332e-03    9.26038068740838e-06    4.02186215233130e-03
01.38    8.97396356066095e-03    8.99658925553744e-03    1.01976355759792e-05    4.29726615193408e-03
01.39    9.26583015475434e-03    9.61611698274224e-03    1.13670321996764e-05    4.59400986173781e-03
01.40    9.56026173058826e-03    1.03041353410873e-02    1.28834861086509e-05    4.92336997188016e-03
01.41    9.85326776650926e-03    1.10916243305812e-02    1.49173733793632e-05    5.30028128878409e-03
01.42    1.01409162278302e-02    1.20156213258656e-02    1.77061321150728e-05    5.74259762784588e-03
01.43    1.04200417929576e-02    1.31166730752401e-02    2.15609655890997e-05    6.26984028784972e-03
01.44    1.06890393762805e-02    1.44354340112226e-02    2.68662514433893e-05    6.90154177686418e-03
01.45    1.09486882628669e-02    1.60087358343934e-02    3.40699958146052e-05    7.65535353871224e-03
01.46    1.12029388543243e-02    1.78655394821239e-02    4.36646369053529e-05    8.54512572516041e-03
01.47    1.14595979217648e-02    2.00232932162050e-02    5.61600757088444e-05    9.57921896992573e-03
01.48    1.17308896905920e-02    2.24853324471917e-02    7.20538784476731e-05    1.07593575075588e-02
01.49    1.20339098059351e-02    2.52400678711137e-02    9.18007377398311e-05    1.20803744675636e-02
01.50    1.23910262638786e-02    2.82629274713599e-02    1.15779011818104e-04    1.35313144011148e-02
01.51    1.28303050251814e-02    3.15221002292354e-02    1.44261463611554e-04    1.50984417230495e-02
01.52    1.33860039164570e-02    3.49886786771525e-02    1.77402084366826e-04    1.67704936352908e-02
01.53    1.40991424849786e-02    3.86510987821542e-02    2.15239164784691e-04    1.85461683685703e-02
01.54    1.50179884079773e-02    4.25326284258352e-02    2.57706118597454e-04    2.04432794527654e-02
01.55    1.61980180848402e-02    4.67091090142682e-02    3.04640496922712e-04    2.25082028986128e-02
01.56    1.77007337209315e-02    5.13220920309957e-02    3.55800207918934e-04    2.48230941130068e-02
01.57    1.95906908984686e-02    5.65806312138999e-02    4.10891145650807e-04    2.75072249074708e-02
01.58    2.19303834490346e-02    6.27454655568575e-02    4.69583600784730e-04    3.07088626761963e-02
01.59    2.47733598984751e-02    7.00917970932727e-02    5.31514487737917e-04    3.45852877585023e-02
01.60    2.81568069154040e-02    7.88513160327161e-02    5.96311224031581e-04    3.92709247937248e-02
01.61    3.20954828027065e-02    8.91402826585211e-02    6.63679481303460e-04    4.48370612563552e-02
01.62    3.65788037482792e-02    1.00886637257003e-01    7.33583064889464e-04    5.12503047339974e-02
01.63    4.15716496678548e-02    1.13773066832167e-01    8.06532639244164e-04    5.83394869768192e-02
01.64    4.70172608003055e-02    1.27213102284332e-01    8.83962464467161e-04    6.57811026512408e-02
01.65    5.28386049393069e-02    1.40373111398335e-01    9.68614496879928e-04    7.31110794254645e-02
01.66    5.89340535881589e-02    1.52244887219133e-01    1.06479952664256e-03    7.97658396064877e-02
01.67    6.51650459673470e-02    1.61763066083088e-01    1.17838810467993e-03    8.51492559984313e-02
01.68    7.13376120439451e-02    1.67951508673138e-01    1.31641394976830e-03    8.87159450105423e-02
01.69    7.71847389403424e-02    1.70075529939916e-01    1.48626876339583e-03    9.00570167728989e-02
01.70    8.23601975308177e-02    1.67773977030339e-01    1.69461191850040e-03    8.89729448993564e-02
01.71    8.64542214449082e-02    1.61147167447801e-01    1.94622293886832e-03    8.55199327213582e-02
01.72    8.90363467182156e-02    1.50783397901091e-01    2.24303725737267e-03    8.00206558049787e-02
01.73    8.97219532745679e-02    1.37716789262526e-01    2.58353498962523e-03    7.30364860056341e-02
01.74    8.82497060221942e-02    1.23320403211469e-01    2.96251802562709e-03    6.53048198002099e-02
01.75    8.45510721268644e-02    1.09148639484386e-01    3.37117260862595e-03    5.76506351673638e-02
01.76    7.87930447824445e-02    9.67501316479088e-02    3.79725515736570e-03    5.08849719407114e-02
01.77    7.13811904334341e-02    8.74757490267575e-02    4.22530274328453e-03    4.57043215669980e-02
01.78    6.29201947560511e-02    8.23062821627222e-02    4.63692716576900e-03    4.26041992412219e-02
01.79    5.41398710153164e-02    8.17219606345226e-02    5.01140972335514e-03    4.18180009084922e-02
01.80    4.58021736388176e-02    8.56316684505651e-02    5.32686433586543e-03    4.32890538253460e-02
01.81    3.86068021390804e-02    9.33736653207906e-02    5.56211545717696e-03    4.66797974904246e-02
01.82    3.31099452137577e-02    1.03791701246929e-01    5.69916460032168e-03    5.14174594232433e-02
01.83    2.96649901167961e-02    1.15380660158383e-01    5.72580440099045e-03    5.67707330160874e-02
01.84    2.83884961035580e-02    1.26484938609691e-01    5.63773696587454e-03    6.19473506666536e-02
01.85    2.91514489985968e-02    1.35522425882484e-01    5.43957628133981e-03    6.61988335012847e-02
01.86    3.15951434906737e-02    1.41200037571136e-01    5.14437392794126e-03    6.89170679632841e-02
01.87    3.51716331515508e-02    1.42685818499235e-01    4.77172576808730e-03    6.97083940432835e-02
01.88    3.92083224509384e-02    1.39708637406390e-01    4.34492963165335e-03    6.84344354840212e-02
01.89    4.29934243799599e-02    1.32569259562062e-01    3.88789862378935e-03    6.52145751217984e-02
01.90    4.58736367250608e-02    1.22063553018030e-01    3.42252518487036e-03    6.03917212453237e-02
01.91    4.73493763390066e-02    1.09335925739764e-01    2.96696653825217e-03    5.44694716486435e-02
01.92    4.71494574088185e-02    9.56942184729082e-02    2.53501517949565e-03    4.80334167729583e-02
01.93    4.52687054618046e-02    8.24223531140386e-02    2.13641559596788e-03    4.16708744125410e-02
01.94    4.19592410176226e-02    7.06242764056323e-02    1.77775135637486e-03    3.59022514948349e-02
01.95    3.76772285101811e-02    6.11227549298224e-02    1.46346429917366e-03    3.11336382271585e-02
