# RiF 1e-20 (cm^2/W)
# 1w(eV) RpP                     RpS                     RsP                     RsS
00.01    2.73113725310900e-07    1.33358863319179e-08    2.05630166969959e-10    7.56599115395942e-09
00.02    3.29200086023930e-07    1.60830667574114e-08    2.47902950042304e-10    9.12464222702512e-09
00.03    4.46865796466583e-07    2.18490495834358e-08    3.36602022659622e-10    1.23960727415890e-08
00.04    6.37072155346117e-07    3.11763640756714e-08    4.80018292211662e-10    1.76881375644864e-08
00.05    9.16203103843583e-07    4.48771977447602e-08    6.90550744645420e-10    2.54617153458668e-08
00.06    1.30600500181673e-06    6.40319155853681e-08    9.84668590681591e-10    3.63298831537053e-08
00.07    1.83351981113416e-06    8.99877482417134e-08    1.38287092846814e-09    5.10571830873687e-08
00.08    2.53101891847435e-06    1.24357986432954e-07    1.90964925392898e-09    7.05591845410859e-08
00.09    3.43594360973354e-06    1.69021978716058e-07    2.59345739436775e-09    9.59025047878632e-08
00.10    4.59085555363633e-06    2.26126105809237e-07    3.46669129185867e-09    1.28305382702691e-07
00.11    6.04339833248538e-06    2.98085776359376e-07    4.56567952762815e-09    1.69138840823132e-07
00.12    7.84626945199348e-06    3.87588423673706e-07    5.93068382460523e-09    2.19928416016520e-07
00.13    1.00572005642634e-05    4.97597412349797e-07    7.60590822921082e-09    2.82356415388043e-07
00.14    1.27389441126308e-05    6.31356770529401e-07    9.63951549501879e-09    3.58264638929004e-07
00.15    1.59592638477378e-05    7.92396632032665e-07    1.20836481736506e-08    4.49657521552399e-07
00.16    1.97909279353481e-05    9.84539361311875e-07    1.49944543339268e-08    5.58705657846644e-07
00.17    2.43117032288745e-05    1.21190628605673e-06    1.84321157995443e-08    6.87749686083759e-07
00.18    2.96043502114734e-05    1.47892505198655e-06    2.24608794449012e-08    8.39304528072786e-07
00.19    3.57566182360254e-05    1.79033759038284e-06    2.71490907518404e-08    1.01606398253101e-06
00.20    4.28612408430566e-05    2.15120873025023e-06    3.25692295478355e-08    1.22090568773799e-06
00.21    5.10159312350578e-05    2.56693544650486e-06    3.87979483534700e-08    1.45689645754918e-06
00.22    6.03233778793820e-05    3.04325683464310e-06    4.59161121246431e-08    1.72729801220723e-06
00.23    7.08912401530299e-05    3.58626475229251e-06    5.40088411371091e-08    2.03557312079859e-06
00.24    8.28321443065693e-05    4.20241528751337e-06    6.31655550622418e-08    2.38539216904788e-06
00.25    9.62636792023306e-05    4.89854088818133e-06    7.34800200749949e-08    2.78064017388942e-06
00.26    1.11308392401566e-04    5.68186348553947e-06    8.50503979570159e-08    3.22542427239521e-06
00.27    1.28093785724809e-04    6.56000827095788e-06    9.79792974398642e-08    3.72408169105820e-06
00.28    1.46752311043412e-04    7.54101849745087e-06    1.12373828630192e-07    4.28118825066562e-06
00.29    1.67421365694890e-04    8.63337109149500e-06    1.28345658434083e-07    4.90156740793974e-06
00.30    1.90243288733750e-04    9.84599329356626e-06    1.46011069109155e-07    5.59029989419229e-06
00.31    2.15365356484307e-04    1.11882802382756e-05    1.65491017283899e-07    6.35273396489580e-06
00.32    2.42939779745982e-04    1.26701137320347e-05    1.86911193555292e-07    7.19449630870643e-06
00.33    2.73123700839444e-04    1.43018821930688e-05    2.10402085738789e-07    8.12150365764054e-06
00.34    3.06079191749538e-04    1.60945019154874e-05    2.36099042771994e-07    9.13997511351176e-06
00.35    3.41973253011395e-04    1.80594397792860e-05    2.64142340660111e-07    1.02564452698587e-05
00.36    3.80977813057369e-04    2.02087374423300e-05    2.94677251906973e-07    1.14777781315570e-05
00.37    4.23269729405655e-04    2.25550371705816e-05    3.27854114678942e-07    1.28111819320894e-05
00.38    4.69030789869695e-04    2.51116090640740e-05    3.63828405496377e-07    1.42642248572540e-05
00.39    5.18447715496505e-04    2.78923802038076e-05    4.02760810934768e-07    1.58448517622189e-05
00.40    5.71712163986050e-04    3.09119653663757e-05    4.44817303848070e-07    1.75614019348640e-05
00.41    6.29020734713223e-04    3.41856996548408e-05    4.90169219096464e-07    1.94226279635088e-05
00.42    6.90574973950232e-04    3.77296732040358e-05    5.38993332780326e-07    2.14377158054926e-05
00.43    7.56581382115910e-04    4.15607679241602e-05    5.91471944798285e-07    2.36163061203846e-05
00.44    8.27251421678599e-04    4.56966967074295e-05    6.47792959953716e-07    2.59685169937710e-05
00.45    9.02801525572578e-04    5.01560449232999e-05    7.08149970139924e-07    2.85049681167341e-05
00.46    9.83453108687421e-04    5.49583148097178e-05    7.72742334866285e-07    3.12368066023528e-05
00.47    1.06943257788990e-03    6.01239724302331e-05    8.41775258892456e-07    3.41757344321405e-05
00.48    1.16097134711273e-03    6.56744980383919e-05    9.15459864965331e-07    3.73340377885570e-05
00.49    1.25830585152864e-03    7.16324394232561e-05    9.94013272194189e-07    4.07246182737114e-05
00.50    1.36167756687231e-03    7.80214690440532e-05    1.07765867121804e-06    4.43610261621687e-05
00.51    1.47133303006682e-03    8.48664450228092e-05    1.16662538820924e-06    4.82574959850738e-05
00.52    1.58752386714985e-03    9.21934757300275e-05    1.26114899954378e-06    5.24289842329711e-05
00.53    1.71050682222475e-03    1.00029989637707e-04    1.36147137305507e-06    5.68912099406583e-05
00.54    1.84054379553864e-03    1.08404809178806e-04    1.46784079222743e-06    6.16606977108129e-05
00.55    1.97790188536760e-03    1.17348230858829e-04    1.58051201485431e-06    6.67548240823041e-05
00.56    2.12285343529545e-03    1.26892110495347e-04    1.69974634792749e-06    7.21918669285852e-05
00.57    2.27567608764068e-03    1.37069954994600e-04    1.82581170044363e-06    7.79910585433350e-05
00.58    2.43665283682188e-03    1.47917020395528e-04    1.95898266807428e-06    8.41726425581357e-05
00.59    2.60607208881840e-03    1.59470416577706e-04    2.09954053220385e-06    9.07579347674988e-05
00.60    2.78422771548845e-03    1.71769219961209e-04    2.24777329180562e-06    9.77693889257344e-05
00.61    2.97141911845720e-03    1.84854592514650e-04    2.40397572539595e-06    1.05230666940470e-04
00.62    3.16795128913511e-03    1.98769910459170e-04    2.56844940942693e-06    1.13166714734349e-04
00.63    3.37413488558797e-03    2.13560901726882e-04    2.74150274314571e-06    1.21603843722249e-04
00.64    3.59028631212879e-03    2.29275793954272e-04    2.92345098388095e-06    1.30569818449125e-04
00.65    3.81672782170885e-03    2.45965475094476e-04    3.11461624966591e-06    1.40093950946043e-04
00.66    4.05378763070821e-03    2.63683666960157e-04    3.31532740744475e-06    1.50207202062455e-04
00.67    4.30180004559877e-03    2.82487113160921e-04    3.52591994924198e-06    1.60942290332023e-04
00.68    4.56110560871685e-03    3.02435782676147e-04    3.74673577298789e-06    1.72333809496350e-04
00.69    4.83205124845286e-03    3.23593089644069e-04    3.97812296180598e-06    1.84418355612788e-04
00.70    5.11499044450368e-03    3.46026131001048e-04    4.22043553775885e-06    1.97234665110948e-04
00.71    5.41028339822627e-03    3.69805942081776e-04    4.47403331134565e-06    2.10823764926347e-04
00.72    5.71829720863271e-03    3.95007772781998e-04    4.73928172825651e-06    2.25229136118166e-04
00.73    6.03940607508148e-03    4.21711388696393e-04    5.01655169641052e-06    2.40496892754916e-04
00.74    6.37399150643825e-03    4.50001396423562e-04    5.30621934194356e-06    2.56675975371391e-04
00.75    6.72244254716397e-03    4.79967598280980e-04    5.60866567208377e-06    2.73818361875266e-04
00.76    7.08515603614545e-03    5.11705380643070e-04    5.92427593135573e-06    2.91979295648375e-04
00.77    7.46253688145104e-03    5.45316137097015e-04    6.25343885864836e-06    3.11217534608515e-04
00.78    7.85499835474573e-03    5.80907732569221e-04    6.59654580243061e-06    3.31595623373391e-04
00.79    8.26296242697848e-03    6.18595014166545e-04    6.95398962504284e-06    3.53180192629560e-04
00.80    8.68686011284896e-03    6.58500372482270e-04    7.32616360562148e-06    3.76042289850232e-04
00.81    9.12713187574640e-03    7.00754362479861e-04    7.71346018690603e-06    4.00257745543641e-04
00.82    9.58422806358576e-03    7.45496388833855e-04    8.11626945836409e-06    4.25907578606945e-04
00.83    1.00586094147022e-02    7.92875464677840e-04    8.53497742161422e-06    4.53078445200202e-04
00.84    1.05507476322910e-02    8.43051054177988e-04    8.96996371389410e-06    4.81863137792785e-04
00.85    1.10611260126560e-02    8.96194007305240e-04    9.42159887782117e-06    5.12361138481421e-04
00.86    1.15902401532756e-02    9.52487604162398e-04    9.89024107676607e-06    5.44679237882466e-04
00.87    1.21385986993700e-02    1.01212872182004e-03    1.03762320315360e-05    5.78932226948916e-04
00.88    1.27067241450061e-02    1.07532914475240e-03    1.08798924448913e-05    6.15243675276212e-04
00.89    1.32951536940486e-02    1.14231704626849e-03    1.14015164167122e-05    6.53746811362015e-04
00.90    1.39044401904815e-02    1.21333867708775e-03    1.19413648279668e-05    6.94585527156672e-04
00.91    1.45351531698720e-02    1.28866030692996e-03    1.24996571206757e-05    7.37915530651981e-04
00.92    1.51878800101121e-02    1.36857045711306e-03    1.30765616079389e-05    7.83905670917018e-04
00.93    1.58632272131764e-02    1.45338246172640e-03    1.36721841208011e-05    8.32739454231470e-04
00.94    1.65618217516542e-02    1.54343739655065e-03    1.42865551253157e-05    8.84616775798768e-04
00.95    1.72843125356884e-02    1.63910743439541e-03    1.49196153976918e-05    9.39755904504475e-04
00.96    1.80313720216021e-02    1.74079973945213e-03    1.55711997261247e-05    9.98395793144013e-04
00.97    1.88036981820088e-02    1.84896103750873e-03    1.62410178561793e-05    1.06079880182426e-03
00.98    1.96020171458615e-02    1.96408299271733e-03    1.69286310275002e-05    1.12725392562791e-03
00.99    2.04270868519062e-02    2.08670832074905e-03    1.76334223568153e-05    1.19808050026620e-03
01.00    2.12797019895254e-02    2.21743721758416e-03    1.83545591550368e-05    1.27363214852345e-03
01.01    2.21607000475420e-02    2.35693311535035e-03    1.90909507324915e-05    1.35430040135744e-03
01.02    2.30709674492171e-02    2.50592635137344e-03    1.98412103002810e-05    1.44051713432031e-03
01.03    2.40114438859163e-02    2.66521433357353e-03    2.06036389482267e-05    1.53275495242163e-03
01.04    2.49831221875182e-02    2.83565757572342e-03    2.13762544441345e-05    1.63152508293855e-03
01.05    2.59870412235654e-02    3.01817284516586e-03    2.21568865232408e-05    1.73737343858613e-03
01.06    2.70242706653061e-02    3.21372746610987e-03    2.29433498335050e-05    1.85087717298461e-03
01.07    2.80958890260781e-02    3.42334183495548e-03    2.37336846392186e-05    1.97264586087258e-03
01.08    2.92029600287461e-02    3.64810871288506e-03    2.45264265458190e-05    2.10333237763754e-03
01.09    3.03465155018405e-02    3.88923563344080e-03    2.53208422526615e-05    2.24365727578755e-03
01.10    3.15275546761653e-02    4.14810915254960e-03    2.61170635403187e-05    2.39444599126473e-03
01.11    3.27470684158237e-02    4.42636725006995e-03    2.69160833877310e-05    2.55667084574908e-03
01.12    3.40060921326438e-02    4.72595245717688e-03    2.77196483777159e-05    2.73148162720117e-03
01.13    3.53057837476843e-02    5.04910932272036e-03    2.85301795456218e-05    2.92020315405601e-03
01.14    3.66475149495602e-02    5.39829258379476e-03    2.93509439575226e-05    3.12427977343750e-03
01.15    3.80329574122251e-02    5.77597155205690e-03    3.01867428128260e-05    3.34515809096411e-03
01.16    3.94641426402160e-02    6.18435159650452e-03    3.10453204162025e-05    3.58412029647758e-03
01.17    4.09434755882811e-02    6.62507757139690e-03    3.19395086845667e-05    3.84210676333216e-03
01.18    4.24736870097273e-02    7.09902231209655e-03    3.28898220194077e-05    4.11958964037330e-03
01.19    4.40577161650920e-02    7.60627858942048e-03    3.39268889970969e-05    4.41656853508871e-03
01.20    4.56985240806313e-02    8.14645142594080e-03    3.50928604734352e-05    4.73274677290215e-03
01.21    4.73988470242294e-02    8.71928495544649e-03    3.64408943281245e-05    5.06790939791662e-03
01.22    4.91609154326915e-02    9.32556362558472e-03    3.80320693106212e-05    5.42246748164152e-03
01.23    5.09861824024044e-02    9.96812282604496e-03    3.99296346009993e-05    5.79807023061567e-03
01.24    5.28751280441435e-02    1.06527193490740e-02    4.21912554143384e-05    6.19813499106738e-03
01.25    5.48272213550974e-02    1.13884778813208e-02    4.48606691490530e-05    6.62812374227383e-03
01.26    5.68411202909634e-02    1.21876678530531e-02    4.79606718680215e-05    7.09541654316344e-03
01.27    5.89151616882193e-02    1.30646807108591e-02    5.14894235799625e-05    7.60870121955039e-03
01.28    6.10481307054748e-02    1.40342557537176e-02    5.54216075748369e-05    8.17690541172159e-03
01.29    6.32402121850283e-02    1.51092090037881e-02    5.97151000657552e-05    8.80782168151801e-03
01.30    6.54939332071823e-02    1.62981078623375e-02    6.43227709920383e-05    9.50669123096453e-03
01.31    6.78148386547999e-02    1.76034581087920e-02    6.92082572282620e-05    1.02750883165448e-02
01.32    7.02116305932484e-02    1.90209907642605e-02    7.43644453405817e-05    1.11104621740734e-02
01.33    7.26955635079156e-02    2.05405331579127e-02    7.98341966047123e-05    1.20066327551879e-02
01.34    7.52790203777034e-02    2.21487244142304e-02    8.57344267458953e-05    1.29554016136309e-02
01.35    7.79733728207580e-02    2.38335186527873e-02    9.22865233741608e-05    1.39492472389900e-02
01.36    8.07864118418422e-02    2.55900607462622e-02    9.98574784133240e-05    1.49848556418424e-02
01.37    8.37197766810515e-02    2.74271848817248e-02    1.09016444659202e-04    1.60670324817451e-02
01.38    8.67668700931235e-02    2.93735430476123e-02    1.20609632752815e-04    1.72123937159641e-02
01.39    8.99117278247822e-02    3.14822734473670e-02    1.35852355950390e-04    1.84521706562973e-02
01.40    9.31292349071152e-02    3.38331969144479e-02    1.56431219823256e-04    1.98335123752642e-02
01.41    9.63870048293364e-02    3.65317776890815e-02    1.84604293218280e-04    2.14188217749286e-02
01.42    9.96491612834914e-02    3.97044704814962e-02    2.23283627255198e-04    2.32829063069999e-02
01.43    1.02882163830376e-01    4.34905557513208e-02    2.76081928758828e-04    2.55080320799396e-02
01.44    1.06062677575009e-01    4.80310729803687e-02    3.47303797407022e-04    2.81772945088879e-02
01.45    1.09187232652218e-01    5.34558776115452e-02    4.41864833587852e-04    3.13669742030536e-02
01.46    1.12283151735258e-01    5.98701932381483e-02    5.65128612186743e-04    3.51387423984771e-02
01.47    1.15420001616732e-01    6.73424516399441e-02    7.22661268384328e-04    3.95328160427135e-02
01.48    1.18720793142759e-01    7.58956785817408e-02    9.19919561519892e-04    4.45634178482011e-02
01.49    1.22372319853222e-01    8.55052574859946e-02    1.16187078924320e-03    5.02181823222875e-02
01.50    1.26634112455015e-01    9.61066653244188e-02    1.45251443418494e-03    5.64636275173343e-02
01.51    1.31845723983220e-01    1.07616895097131e-01    1.79433726383748e-03    6.32590431249854e-02
01.52    1.38432029838570e-01    1.19972032332225e-01    2.18780062915871e-03    7.05804797858961e-02
01.53    1.46905677350785e-01    1.33181397982912e-01    2.63087588620505e-03    7.84553153644232e-02
01.54    1.57865064745482e-01    1.47394665559578e-01    3.11856666161985e-03    8.70054140286448e-02
01.55    1.71985008085696e-01    1.62971409356355e-01    3.64245839847667e-03    9.64924220375758e-02
01.56    1.89995010788688e-01    1.80533665428761e-01    4.19050113870800e-03    1.07352802597940e-01
01.57    2.12639648705261e-01    2.00975941073351e-01    4.74716174383316e-03    1.20205634140546e-01
01.58    2.40619058664967e-01    2.25407181385866e-01    5.29390678464869e-03    1.35815426017259e-01
01.59    2.74514291096225e-01    2.55006262098982e-01    5.81023462017236e-03    1.54996286890827e-01
01.60    3.14709329328426e-01    2.90788741710855e-01    6.27590494930637e-03    1.78454527101847e-01
01.61    3.61326030881419e-01    3.33307227487349e-01    6.67480764309023e-03    2.06583952209609e-01
01.62    4.14187373679816e-01    3.82335067291175e-01    7.00042333426962e-03    2.39247768817591e-01
01.63    4.72814690044081e-01    4.36604462063947e-01    7.26258486819869e-03    2.75596864898046e-01
01.64    5.36446353056569e-01    4.93677335196712e-01    7.49461483604865e-03    3.13979999646986e-01
01.65    6.04047746066829e-01    5.50014967644558e-01    7.75893228492596e-03    3.51992727377899e-01
01.66    6.74277019379102e-01    6.01278788330958e-01    8.14860161381868e-03    3.86687337814180e-01
01.67    7.45385640482553e-01    6.42844911122661e-01    8.78234996005646e-03    4.14929903918688e-01
01.68    8.15067927237311e-01    6.70461597837464e-01    9.79156134078759e-03    4.33852396127178e-01
01.69    8.80318762969992e-01    6.80937259628415e-01    1.12998714213774e-02    4.41319234736547e-01
01.70    9.37393580540040e-01    6.72729036495773e-01    1.33987746002484e-02    4.36317376190358e-01
01.71    9.81967961240054e-01    6.46314403475414e-01    1.61249862981936e-02    4.19190737942233e-01
01.72    1.00955390485249e+00    6.04269099649915e-01    1.94460663769884e-02    3.91670894817616e-01
01.73    1.01615237162693e+00    5.51032177799032e-01    2.32593249520379e-02    3.56697188393155e-01
01.74    9.99031675458378e-01    4.92396885561291e-01    2.74054234091455e-02    3.18059102869949e-01
01.75    9.57454425866839e-01    4.34809959997011e-01    3.16933807638857e-02    2.79922188700893e-01
01.76    8.93160665637549e-01    3.84583817431115e-01    3.59297177837855e-02    2.46311211682272e-01
01.77    8.10459368570842e-01    3.47126508962597e-01    3.99430878333265e-02    2.20621817459264e-01
01.78    7.15873165504973e-01    3.26281025382569e-01    4.35977346195680e-02    2.05220152025278e-01
01.79    6.17393097049813e-01    3.23847848792415e-01    4.67937154556754e-02    2.01174451460253e-01
01.80    5.23490348625771e-01    3.39346369926320e-01    4.94570189204452e-02    2.08146714506140e-01
01.81    4.42069998059350e-01    3.70050752165385e-01    5.15262458737967e-02    2.24456307943076e-01
01.82    3.79534593380372e-01    4.11310591500749e-01    5.29429509162502e-02    2.47309560270173e-01
01.83    3.40072092354802e-01    4.57133382036570e-01    5.36500795949040e-02    2.73169617762939e-01
01.84    3.25222593505577e-01    5.00965543734270e-01    5.35987304694392e-02    2.98220703030830e-01
01.85    3.33736552503936e-01    5.36568939673973e-01    5.27597813329057e-02    3.18864249226911e-01
01.86    3.61722198286554e-01    5.58862079123546e-01    5.11352805966122e-02    3.32176150476782e-01
01.87    4.03080984965772e-01    5.64590257942386e-01    4.87653579645727e-02    3.36258182717899e-01
01.88    4.50224604251806e-01    5.52711851290874e-01    4.57288955360148e-02    3.30432740110493e-01
01.89    4.95036047083764e-01    5.24437935614455e-01    4.21387048584278e-02    3.15256596967265e-01
01.90    5.29978890860507e-01    4.82929262031799e-01    3.81333258551549e-02    2.92361305111449e-01
01.91    5.49193253558014e-01    4.32721698644211e-01    3.38676727572164e-02    2.64157793054071e-01
01.92    5.49375109599309e-01    3.79000845851141e-01    2.95041072908512e-02    2.33463808339287e-01
01.93    5.30248130450192e-01    3.26867667382015e-01    2.52045120348028e-02    2.03121542862766e-01
01.94    4.94514368948797e-01    2.80726970552347e-01    2.11230457744521e-02    1.75668701436025e-01
01.95    4.47292856455301e-01    2.43891146816920e-01    1.73992189863261e-02    1.53109631931038e-01
