# RiF 1e-20 (cm^2/W)
# 1w(eV) RpP                     RpS                     RsP                     RsS
00.01    3.52778067644965e-07    6.94779914247194e-09    1.26162461854725e-10    1.93334624903437e-09
00.02    4.25229084593908e-07    8.37877291218107e-09    1.52097896445111e-10    2.33151887658041e-09
00.03    5.77228290686939e-07    1.13821247693528e-08    2.06516860646993e-10    3.16720428202562e-09
00.04    8.22938430046932e-07    1.62402756503252e-08    2.94505634402855e-10    4.51897364767811e-09
00.05    1.18352938053175e-06    2.33759819507183e-08    4.23670619258724e-10    6.50443679535240e-09
00.06    1.68710118972003e-06    3.33515170268119e-08    6.04115016974425e-10    9.28001205626353e-09
00.07    2.36859885850525e-06    4.68679275015379e-08    8.48413937271566e-10    1.30407133059980e-08
00.08    3.26972821797453e-06    6.47645367660391e-08    1.17159123589881e-09    1.80200061991852e-08
00.09    4.43888065913329e-06    8.80188520910414e-08    1.59110085562932e-09    2.44897751301653e-08
00.10    5.93107105016213e-06    1.17746966415427e-07    2.12681418712520e-09    3.27604251291333e-08
00.11    7.80789018241515e-06    1.55204475258685e-07    2.80101397534476e-09    4.31811275502190e-08
00.12    1.01374710063114e-05    2.01787899795446e-07    3.63839433397130e-09    5.61402043835804e-08
00.13    1.29944657442079e-05    2.59036566411992e-07    4.66606604722191e-09    7.20656398985277e-08
00.14    1.64600315474169e-05    3.28634900946309e-07    5.91356623063969e-09    9.14257045050039e-08
00.15    2.06218214206686e-05    4.12415071461003e-07    7.41287093237350e-09    1.14729678422684e-07
00.16    2.55739787615168e-05    5.12359971569623e-07    9.19841048753789e-09    1.42528665522220e-07
00.17    3.14171336604769e-05    6.30606497390712e-07    1.13070864773361e-08    1.75416491036325e-07
00.18    3.82584003337696e-05    7.69449130109883e-07    1.37782905091166e-08    2.14030681939405e-07
00.19    4.62113752079939e-05    9.31343816157524e-07    1.66539243526865e-08    2.59053528961544e-07
00.20    5.53961353804051e-05    1.11891216171033e-06    1.99784214287241e-08    3.11213233865936e-07
00.21    6.59392375409507e-05    1.33494593406106e-06    2.37987698224031e-08    3.71285142674365e-07
00.22    7.79737173362040e-05    1.58241192259071e-06    2.81645362387159e-08    4.40093069701082e-07
00.23    9.16390890692382e-05    1.86445711565946e-06    3.31278917396649e-08    5.18510716292021e-07
00.24    1.07081346079099e-04    2.18441429412089e-06    3.87436383620308e-08    6.07463187103616e-07
00.25    1.24452961135691e-04    2.54580792429350e-06    4.50692374525130e-08    7.07928608796714e-07
00.26    1.43912887555943e-04    2.95236056505002e-06    5.21648392803456e-08    8.20939857528668e-07
00.27    1.65626559959421e-04    3.40799955580205e-06    6.00933139517851e-08    9.47586395875581e-07
00.28    1.89765895660197e-04    3.91686422106524e-06    6.89202840860304e-08    1.08901623249887e-06
00.29    2.16509295838632e-04    4.48331343953517e-06    7.87141582713338e-08    1.24643800422110e-06
00.30    2.46041648152474e-04    5.11193371247774e-06    8.95461662215193e-08    1.42112319475261e-06
00.31    2.78554328746614e-04    5.80754766028377e-06    1.01490394464863e-07    1.61440849276253e-06
00.32    3.14245206693578e-04    6.57522310771316e-06    1.14623822499123e-07    1.82769830096354e-06
00.33    3.53318648544451e-04    7.42028272234070e-06    1.29026361076545e-07    2.06246740538334e-06
00.34    3.95985524652713e-04    8.34831430877506e-06    1.44780890944141e-07    2.32026380744445e-06
00.35    4.42463216739820e-04    9.36518181354243e-06    1.61973302939370e-07    2.60271173817539e-06
00.36    4.92975626479474e-04    1.04770370659496e-05    1.80692539973059e-07    2.91151485267160e-06
00.37    5.47753186735197e-04    1.16903323234826e-05    2.01030639392597e-07    3.24845962996530e-06
00.38    6.07032873253859e-04    1.30118334523267e-05    2.23082777254375e-07    3.61541897758862e-06
00.39    6.71058218935645e-04    1.44486340691813e-05    2.46947312569763e-07    4.01435606206218e-06
00.40    7.40079329086910e-04    1.60081703876257e-05    2.72725834038448e-07    4.44732837645909e-06
00.41    8.14352899133673e-04    1.76982369818779e-05    3.00523206946489e-07    4.91649205767718e-06
00.42    8.94142233097845e-04    1.95270035506189e-05    3.30447621662668e-07    5.42410647561517e-06
00.43    9.79717264949130e-04    2.15030326273953e-05    3.62610644165014e-07    5.97253910872989e-06
00.44    1.07135458142508e-03    2.36352984942681e-05    3.97127265644443e-07    6.56427073434050e-06
00.45    1.16933744586421e-03    2.59332071449154e-05    4.34115952918405e-07    7.20190094824860e-06
00.46    1.27395582647880e-03    2.84066176611898e-05    4.73698697965228e-07    7.88815405681522e-06
00.47    1.38550642334056e-03    3.10658647644028e-05    5.16001066174676e-07    8.62588533445299e-06
00.48    1.50429270221855e-03    3.39217830300928e-05    5.61152242724467e-07    9.41808771098857e-06
00.49    1.63062492778058e-03    3.69857324767334e-05    6.09285081826664e-07    1.02678988825979e-05
00.50    1.76482020398677e-03    4.02696260173038e-05    6.60536154577643e-07    1.11786088801048e-05
00.51    1.90720251661780e-03    4.37859587187626e-05    7.15045792217497e-07    1.21536681661238e-05
00.52    2.05810278570101e-03    4.75478387897725e-05    7.72958153007242e-07    1.31966962026527e-05
00.53    2.21785891999258e-03    5.15690211085068e-05    8.34421254880798e-07    1.43114906749367e-05
00.54    2.38681588359125e-03    5.58639426706199e-05    8.99587046794099e-07    1.55020372574491e-05
00.55    2.56532576790084e-03    6.04477610686138e-05    9.68611449503431e-07    1.67725201411043e-05
00.56    2.75374787153496e-03    6.53363954483026e-05    1.04165440322852e-06    1.81273332378641e-05
00.57    2.95244878816094e-03    7.05465705586326e-05    1.11887990508650e-06    1.95710922192396e-05
00.58    3.16180249587213e-03    7.60958638547776e-05    1.20045606055290e-06    2.11086474163093e-05
00.59    3.38219045433681e-03    8.20027555895742e-05    1.28655509362459e-06    2.27450975911469e-05
00.60    3.61400169797483e-03    8.82866828272195e-05    1.37735337148465e-06    2.44858048336677e-05
00.61    3.85763294126998e-03    9.49680961353455e-05    1.47303144192309e-06    2.63364104347100e-05
00.62    4.11348868184436e-03    1.02068520984623e-04    1.57377404871316e-06    2.83028520354190e-05
00.63    4.38198132540662e-03    1.09610623116216e-04    1.67977014890668e-06    3.03913820370177e-05
00.64    4.66353131546958e-03    1.17618278971448e-04    1.79121293438084e-06    3.26085873920352e-05
00.65    4.95856729212951e-03    1.26116652221416e-04    1.90829983625771e-06    3.49614109008500e-05
00.66    5.26752626736901e-03    1.35132276514344e-04    2.03123247396601e-06    3.74571740655850e-05
00.67    5.59085381499964e-03    1.44693145250894e-04    2.16021659665666e-06    4.01036016206160e-05
00.68    5.92900428617419e-03    1.54828808880173e-04    2.29546197688664e-06    4.29088480023584e-05
00.69    6.28244103185819e-03    1.65570479864853e-04    2.43718229913100e-06    4.58815259594087e-05
00.70    6.65163664661357e-03    1.76951146067804e-04    2.58559503210071e-06    4.90307376272352e-05
00.71    7.03707322253652e-03    1.89005692425780e-04    2.74092134108878e-06    5.23661083159155e-05
00.72    7.43924261333766e-03    2.01771032085812e-04    2.90338599189519e-06    5.58978233316556e-05
00.73    7.85864673560007e-03    2.15286249320221e-04    3.07321723992734e-06    5.96366682420513e-05
00.74    8.29579787985546e-03    2.29592753685040e-04    3.25064667637388e-06    6.35940723712741e-05
00.75    8.75121904507703e-03    2.44734448098259e-04    3.43590902237658e-06    6.77821562026991e-05
00.76    9.22544431397336e-03    2.60757913060468e-04    3.62924176657146e-06    7.22137825741044e-05
00.77    9.71901925116437e-03    2.77712607325585e-04    3.83088474393226e-06    7.69026125539815e-05
00.78    1.02325013274315e-02    2.95651088271288e-04    4.04107963348319e-06    8.18631664808461e-05
00.79    1.07664604005875e-02    3.14629254506862e-04    4.26006933723697e-06    8.71108911109923e-05
00.80    1.13214792123675e-02    3.34706612550373e-04    4.48809733878425e-06    9.26622338378732e-05
00.81    1.18981539681948e-02    3.55946571841253e-04    4.72540696085672e-06    9.85347249321716e-05
00.82    1.24970949607133e-02    3.78416770231356e-04    4.97224046804334e-06    1.04747068592239e-04
00.83    1.31189272876815e-02    4.02189434331027e-04    5.22883802390625e-06    1.11319243768275e-04
00.84    1.37642916623574e-02    4.27341779289715e-04    5.49543634537049e-06    1.18272616279330e-04
00.85    1.44338452941294e-02    4.53956452235248e-04    5.77226708302784e-06    1.25630063085807e-04
00.86    1.51282628779293e-02    4.82122027554835e-04    6.05955486387041e-06    1.33416111314725e-04
00.87    1.58482376358065e-02    5.11933560258994e-04    6.35751487927968e-06    1.41657093690081e-04
00.88    1.65944824338027e-02    5.43493207771658e-04    6.66635011670785e-06    1.50381323469211e-04
00.89    1.73677309818079e-02    5.76910933326637e-04    6.98624797503874e-06    1.59619292440203e-04
00.90    1.81687391283873e-02    6.12305308446138e-04    7.31737622532366e-06    1.69403897126010e-04
00.91    1.89982863200851e-02    6.49804436868330e-04    7.65987801457948e-06    1.79770698624086e-04
00.92    1.98571771967336e-02    6.89547017885785e-04    8.01386595807099e-06    1.90758221620211e-04
00.93    2.07462433653282e-02    7.31683567007768e-04    8.37941520899005e-06    2.02408296663694e-04
00.94    2.16663452684066e-02    7.76377812535256e-04    8.75655555538698e-06    2.14766451132466e-04
00.95    2.26183742231173e-02    8.23808295638612e-04    9.14526257266027e-06    2.27882357371184e-04
00.96    2.36032546762372e-02    8.74170228440873e-04    9.54544757468347e-06    2.41810354743295e-04
00.97    2.46219469680574e-02    9.27677675087879e-04    9.95694598814573e-06    2.56610065881351e-04
00.98    2.56754510360740e-02    9.84566116962127e-04    1.03795033596128e-05    2.72347128166172e-04
00.99    2.67648115200428e-02    1.04509536282049e-03    1.08127581666166e-05    2.89094033405947e-04
01.00    2.78911246319196e-02    1.10955259085200e-03    1.12562206016728e-05    3.06931018617950e-04
01.01    2.90555465451745e-02    1.17825502936228e-03    1.17092492983754e-05    3.25946872730767e-04
01.02    3.02593018948644e-02    1.25155157786714e-03    1.21710307623432e-05    3.46239454477995e-04
01.03    3.15036898447585e-02    1.32982267043175e-03    1.26405711974658e-05    3.67915714793946e-04
01.04    3.27900841221114e-02    1.41347807764541e-03    1.31167131014659e-05    3.91091117814131e-04
01.05    3.41199237045623e-02    1.50295326395035e-03    1.35981885947197e-05    4.15888615588672e-04
01.06    3.54946927076860e-02    1.59870629442869e-03    1.40837161434467e-05    4.42437724511533e-04
01.07    3.69158916127658e-02    1.70121876348007e-03    1.45721365272646e-05    4.70874679959883e-04
01.08    3.83850069162183e-02    1.81100494813668e-03    1.50625687188898e-05    5.01344868678839e-04
01.09    3.99034904731141e-02    1.92863229056839e-03    1.55545528358091e-05    5.34008437147264e-04
01.10    4.14727617441804e-02    2.05475257303348e-03    1.60481433260952e-05    5.69048922144965e-04
01.11    4.30942438142471e-02    2.19013707173074e-03    1.65439304933349e-05    6.06683015792831e-04
01.12    4.47694369073550e-02    2.33570227324652e-03    1.70430043266288e-05    6.47167654420101e-04
01.13    4.65000225826317e-02    2.49250839062169e-03    1.75469265115107e-05    6.90799361664163e-04
01.14    4.82879807059180e-02    2.66171430920523e-03    1.80578273196053e-05    7.37901146446200e-04
01.15    5.01356930795147e-02    2.84448198344117e-03    1.85787735792457e-05    7.88794926084730e-04
01.16    5.20460053124602e-02    3.04184057138721e-03    1.91145306185435e-05    8.43762383750693e-04
01.17    5.40222231827427e-02    3.25454196876424e-03    1.96727490039646e-05    9.03003316604806e-04
01.18    5.60680293178553e-02    3.48295790149608e-03    2.02654516913506e-05    9.66605884714056e-04
01.19    5.81873174222709e-02    3.72707594282858e-03    2.09105167515113e-05    1.03454530584062e-03
01.20    6.03839531908784e-02    3.98664112585357e-03    2.16326993234704e-05    1.10672453339651e-03
01.21    6.26614810083520e-02    4.26145914955028e-03    2.24636792027970e-05    1.18306170494948e-03
01.22    6.50228100241348e-02    4.55183134343273e-03    2.34407077602999e-05    1.26361596570515e-03
01.23    6.74699293224145e-02    4.85904099177547e-03    2.46036783189813e-05    1.34872866857835e-03
01.24    7.00037220382733e-02    5.18577007811706e-03    2.59908226891134e-05    1.43914516590045e-03
01.25    7.26239621737515e-02    5.53630968548741e-03    2.76336575027628e-05    1.53607763692216e-03
01.26    7.53295764809241e-02    5.91644650316497e-03    2.95521489801678e-05    1.64117469964746e-03
01.27    7.81192237738689e-02    6.33296441152390e-03    3.17512343868991e-05    1.75637966047661e-03
01.28    8.09921786931783e-02    6.79278625733979e-03    3.42197712929714e-05    1.88368398285905e-03
01.29    8.39494134070696e-02    7.30188003889148e-03    3.69326954742436e-05    2.02481114140734e-03
01.30    8.69946686918689e-02    7.86414329442606e-03    3.98567489390845e-05    2.18089210139660e-03
01.31    9.01352299184872e-02    8.48053737951255e-03    4.29597623353835e-05    2.35221067526844e-03
01.32    9.33821078859892e-02    9.14875133343048e-03    4.62233313157993e-05    2.53809967273381e-03
01.33    9.67493865370631e-02    9.86362338903428e-03    4.96589208893032e-05    2.73705418017268e-03
01.34    1.00252639848061e-01    1.06184391648011e-02    5.33279178762180e-05    2.94709689414713e-03
01.35    1.03906510449251e-01    1.14070731332648e-02    5.73667222701958e-05    3.16638638544449e-03
01.36    1.07721740867270e-01    1.22267692063551e-02    6.20183085369564e-05    3.39400965216766e-03
01.37    1.11702105419518e-01    1.30811987050567e-02    6.76715683833400e-05    3.63085461018319e-03
01.38    1.15841768983720e-01    1.39833216634221e-02    7.49086876096237e-05    3.88042557017986e-03
01.39    1.20123601903895e-01    1.49575360401168e-02    8.45587236106572e-05    4.14945257591183e-03
01.40    1.24518941600337e-01    1.60406418485013e-02    9.77527978424552e-05    4.44815792455995e-03
01.41    1.28989269468038e-01    1.72812699388445e-02    1.15974139726997e-04    4.79007947938693e-03
01.42    1.33490254656244e-01    1.87376107712026e-02    1.41094953925031e-04    5.19140664727065e-03
01.43    1.37978554256598e-01    2.04735052148634e-02    1.75391018923362e-04    5.66985423456570e-03
01.44    1.42421611240294e-01    2.25531956204341e-02    2.21524079568023e-04    6.24317118182122e-03
01.45    1.46810345361329e-01    2.50352302492127e-02    2.82483306294130e-04    6.92743777973164e-03
01.46    1.51174208127076e-01    2.79661663388596e-02    3.61479949299140e-04    7.73534512056527e-03
01.47    1.55597696321231e-01    3.13748946079881e-02    4.61792683331306e-04    8.67469619379540e-03
01.48    1.60237232968254e-01    3.52686122722158e-02    5.86567630347913e-04    9.74741805499910e-03
01.49    1.65337327480356e-01    3.96316986950520e-02    7.38567955141635e-04    1.09494223486613e-02
01.50    1.71244906506982e-01    4.44290442695700e-02    9.19855231768488e-04    1.22717354535863e-02
01.51    1.78420969703426e-01    4.96154697930868e-02    1.13141892992309e-03    1.37033756866602e-02
01.52    1.87448512293820e-01    5.51523651037365e-02    1.37280808874804e-03    1.52363277668797e-02
01.53    1.99034703395544e-01    6.10316161410094e-02    1.64177719034474e-03    1.68726629391343e-02
01.54    2.14004269996173e-01    6.73049177101312e-02    1.93393454620417e-03    1.86332878433438e-02
01.55    2.33280119971825e-01    7.41137584679764e-02    2.24247494683476e-03    2.05669696657735e-02
01.56    2.57845267809918e-01    8.17117836468718e-02    2.55817160898275e-03    2.27571645834954e-02
01.57    2.88679941835986e-01    9.04683764505796e-02    2.86974564546461e-03    2.53231989094416e-02
01.58    3.26673394616002e-01    1.00842605600368e-01    3.16463931259583e-03    2.84122930192706e-02
01.59    3.72520029858299e-01    1.13320230246627e-01    3.43039722783755e-03    3.21799110530089e-02
01.60    4.26619145734082e-01    1.28313739754298e-01    3.65706979124792e-03    3.67582041583294e-02
01.61    4.89002528774952e-01    1.46036078675224e-01    3.84077628849415e-03    4.22158040718740e-02
01.62    5.59310541406277e-01    1.66370096661246e-01    3.98813321177465e-03    4.85160466593068e-02
01.63    6.36820998316780e-01    1.88764013939660e-01    4.12102893890407e-03    5.54835503350406e-02
01.64    7.20507143912558e-01    2.12184961217618e-01    4.28078960863434e-03    6.27897387037543e-02
01.65    8.09074952586942e-01    2.35156109696030e-01    4.53018802726654e-03    6.99656673599166e-02
01.66    9.00922777326098e-01    2.55887967451324e-01    4.95151175281252e-03    7.64453633595946e-02
01.67    9.93989064651870e-01    2.72493813224536e-01    5.63923308143603e-03    8.16358603959318e-02
01.68    1.08550726545529e+00    2.83258409594167e-01    6.68682879713761e-03    8.50031963676094e-02
01.69    1.17175490587488e+00    2.86914091107014e-01    8.16901624421764e-03    8.61589281000645e-02
01.70    1.24793670108406e+00    2.82873164835726e-01    1.01226991090965e-02    8.49305794357787e-02
01.71    1.30834836860480e+00    2.71371804232893e-01    1.25314590431931e-02    8.14022140611710e-02
01.72    1.34691112306724e+00    2.53497020265475e-01    1.53186818486500e-02    7.59172655088199e-02
01.73    1.35805599293418e+00    2.31090183494511e-01    1.83528643077785e-02    6.90430992292391e-02
01.74    1.33780741352643e+00    2.06542098148809e-01    2.14654688588068e-02    6.15035750641147e-02
01.75    1.28481761063198e+00    1.82510924688893e-01    2.44777552568562e-02    5.40906182025406e-02
01.76    1.20107830738479e+00    1.61602796010850e-01    2.72297657113592e-02    4.75678723891381e-02
01.77    1.09209620455407e+00    1.46056013138238e-01    2.96035502420063e-02    4.25792014130094e-02
01.78    9.66447705646399e-01    1.37465972551356e-01    3.15344616879485e-02    3.95729897022611e-02
01.79    8.34785297215114e-01    1.36582484761600e-01    3.30083635027557e-02    3.87507393423869e-02
01.80    7.08495921034146e-01    1.43204735064455e-01    3.40472674825320e-02    4.00457456832361e-02
01.81    5.98268344046262e-01    1.56191052058127e-01    3.46893921142221e-02    4.31345951259070e-02
01.82    5.12805615184299e-01    1.73589591044779e-01    3.49706145521728e-02    4.74806871515162e-02
01.83    4.57845866444207e-01    1.92881160227717e-01    3.49126316774429e-02    5.24049724165205e-02
01.84    4.35570025137697e-01    2.11307633275957e-01    3.45199012158131e-02    5.71750552477822e-02
01.85    4.44413610158349e-01    2.26242015015956e-01    3.37841592088947e-02    6.11005151262081e-02
01.86    4.79274814801312e-01    2.35544243931850e-01    3.26932824847996e-02    6.36207098640203e-02
01.87    5.32109825106182e-01    2.37844775381657e-01    3.12409870014424e-02    6.43721222542889e-02
01.88    5.92899134329824e-01    2.32707983504950e-01    2.94348930256021e-02    6.32255068099228e-02
01.89    6.50929535515562e-01    2.20648763512405e-01    2.73018472189676e-02    6.02882393742157e-02
01.90    6.96262568472287e-01    2.03003936494382e-01    2.48903156445770e-02    5.58733465972849e-02
01.91    7.21177091984108e-01    1.81688632950351e-01    2.22700372484446e-02    5.04424694132909e-02
01.92    7.21321754425670e-01    1.58889198828690e-01    1.95291799891600e-02    4.45341469631416e-02
01.93    6.96330216396049e-01    1.36752804294615e-01    1.67691710994496e-02    3.86903785199895e-02
01.94    6.49752379231431e-01    1.17129374628246e-01    1.40974297865440e-02    3.33935607328857e-02
01.95    5.88314525508818e-01    1.01404639931674e-01    1.16187475875179e-02    2.90226898388639e-02
