# RiF 1e-20 (cm^2/W)
# 1w(eV) RpP                     RpS                     RsP                     RsS
00.01    3.42641444483044e-08    5.72736213800620e-09    7.23393710126748e-11    2.66166591573983e-09
00.02    4.12991609544460e-08    6.90701204521595e-09    8.72081737560394e-11    3.20989717620997e-09
00.03    5.60577603844405e-08    9.38289309035197e-09    1.18405964363968e-10    4.36054432672646e-09
00.04    7.99138966285528e-08    1.33878501715995e-08    1.68847303980320e-10    6.22182989800471e-09
00.05    1.14921019576696e-07    1.92704339991825e-08    2.42890530222503e-10    8.95575648319834e-09
00.06    1.63804277888988e-07    2.74942350833822e-08    3.46324017875823e-10    1.27778005396933e-08
00.07    2.29951814579778e-07    3.86372771591326e-08    4.86351424867652e-10    1.79566332063881e-08
00.08    3.17406064033255e-07    5.33916193009585e-08    6.71577802321242e-10    2.48139398565459e-08
00.09    4.30855812312908e-07    7.25632925598955e-08    9.11998185434123e-10    3.37243958192225e-08
00.10    5.75629436161553e-07    9.70726437166177e-08    1.21898951322855e-09    4.51158313426084e-08
00.11    7.57689455090082e-07    1.27955108904423e-07    1.60530619370640e-09    5.94695982069157e-08
00.12    9.83628322722580e-07    1.66362405123205e-07    2.08507904256753e-09    7.73211308127811e-08
00.13    1.26066518282540e-06    2.13564103378034e-07    2.67381714945434e-09    9.92606867919357e-08
00.14    1.59664334473996e-06    2.70949541769193e-07    3.38841212546072e-09    1.25934245439623e-07
00.15    2.00002818231529e-06    3.40030037044670e-07    4.24714388137781e-09    1.58044548163400e-07
00.16    2.47990528164585e-06    4.22441372749807e-07    5.26968789195621e-09    1.96352267292465e-07
00.17    3.04597865249504e-06    5.19946539256670e-07    6.47712319125164e-09    2.41677294284059e-07
00.18    3.70856895901203e-06    6.34438726589506e-07    7.89194131152107e-09    2.94900146835890e-07
00.19    4.47861169850584e-06    7.67944565647850e-07    9.53805585012313e-09    3.56963492508117e-07
00.20    5.36765533604634e-06    9.22627632321195e-07    1.14408126784764e-08    4.28873795773963e-07
00.21    6.38785935166152e-06    1.10079220840764e-06    1.36270008780819e-08    5.11703087183029e-07
00.22    7.55199225488767e-06    1.30488733317383e-06    1.61248640402282e-08    6.06590864295667e-07
00.23    8.87342949756493e-06    1.53751112907133e-06    1.89641124793218e-08    7.14746127593233e-07
00.24    1.03661513889517e-05    1.80141545131431e-06    2.21759357425332e-08    8.37449558427432e-07
00.25    1.20447408781095e-05    2.09951082047856e-06    2.57930159922669e-08    9.76055843506859e-07
00.26    1.39243813448887e-05    2.43487173224485e-06    2.98495419652501e-08    1.13199615781531e-06
00.27    1.60208542752290e-05    2.81074226288447e-06    3.43812235734266e-08    1.30678080685267e-06
00.28    1.83505368858137e-05    3.23054207091731e-06    3.94253074163845e-08    1.50200204612084e-06
00.29    2.09303996617035e-05    3.69787275200145e-06    4.50205924906657e-08    1.71933707838351e-06
00.30    2.37780039007403e-05    4.21652460557650e-06    5.12074467999169e-08    1.96055124772729e-06
00.31    2.69114991047543e-05    4.79048380486062e-06    5.80278239474958e-08    2.22750143529185e-06
00.32    3.03496203816671e-05    5.42394002994566e-06    6.55252796078350e-08    2.52213966728336e-06
00.33    3.41116858249367e-05    6.12129458458486e-06    7.37449891697292e-08    2.84651695803363e-06
00.34    3.82175939215242e-05    6.88716902795958e-06    8.27337653773096e-08    3.20278738751469e-06
00.35    4.26878209534345e-05    7.72641437660031e-06    9.25400764661462e-08    3.59321244057268e-06
00.36    4.75434184869980e-05    8.64412089175322e-06    1.03214065430510e-07    4.02016561319511e-06
00.37    5.28060110184908e-05    9.64562851604116e-06    1.14807569008470e-07    4.48613731558840e-06
00.38    5.84977935488609e-05    1.07365379004229e-05    1.27374137669530e-07    4.99374007260505e-06
00.39    6.46415292894781e-05    1.19227221733420e-05    1.40969055043146e-07    5.54571405148976e-06
00.40    7.12605473042557e-05    1.32103393772619e-05    1.55649358627655e-07    6.14493293095514e-06
00.41    7.83787402681368e-05    1.46058456777999e-05    1.71473860088231e-07    6.79441013302990e-06
00.42    8.60205620111932e-05    1.61160093878844e-05    1.88503166370529e-07    7.49730544275097e-06
00.43    9.42110253421736e-05    1.77479258475135e-05    2.06799701822772e-07    8.25693204723184e-06
00.44    1.02975699862794e-04    1.95090332768485e-05    2.26427729597457e-07    9.07676403354736e-06
00.45    1.12340709858302e-04    2.14071295972867e-05    2.47453373248111e-07    9.96044436780176e-06
00.46    1.22332732479600e-04    2.34503903988169e-05    2.69944637514074e-07    1.09117934142376e-05
00.47    1.32978996052564e-04    2.56473880191010e-05    2.93971428250443e-07    1.19348180069020e-05
00.48    1.44307278673526e-04    2.80071119445613e-05    3.19605570098162e-07    1.30337211297194e-05
00.49    1.56345906947202e-04    3.05389904816015e-05    3.46920826195561e-07    1.42129122307790e-05
00.50    1.69123755224102e-04    3.32529138977143e-05    3.75992916436859e-07    1.54770182013276e-05
00.51    1.82670244685102e-04    3.61592591341402e-05    4.06899531317191e-07    1.68308951104446e-05
00.52    1.97015343270774e-04    3.92689159124911e-05    4.39720363058488e-07    1.82796406301176e-05
00.53    2.12189565344587e-04    4.25933149599997e-05    4.74537110722387e-07    1.98286074001280e-05
00.54    2.28223972176344e-04    4.61444577512620e-05    5.11433513469678e-07    2.14834171734770e-05
00.55    2.45150172684543e-04    4.99349487564487e-05    5.50495360578652e-07    2.32499760555596e-05
00.56    2.63000324589264e-04    5.39780296835542e-05    5.91810506827599e-07    2.51344907359511e-05
00.57    2.81807136291669e-04    5.82876163736508e-05    6.35468879594616e-07    2.71434859177444e-05
00.58    3.01603868722445e-04    6.28783381703869e-05    6.81562497173513e-07    2.92838230283935e-05
00.59    3.22424338444120e-04    6.77655801607576e-05    7.30185457240212e-07    3.15627202104051e-05
00.60    3.44302920315911e-04    7.29655286141597e-05    7.81433937431760e-07    3.39877740002252e-05
00.61    3.67274551347118e-04    7.84952191641304e-05    8.35406205605266e-07    3.65669824194452e-05
00.62    3.91374734689514e-04    8.43725889387950e-05    8.92202616006420e-07    3.93087699905737e-05
00.63    4.16639545226817e-04    9.06165322999855e-05    9.51925606897626e-07    4.22220145669697e-05
00.64    4.43105635383034e-04    9.72469607696368e-05    1.01467970151869e-06    4.53160761837885e-05
00.65    4.70810243857282e-04    1.04284867927150e-04    1.08057149735163e-06    4.86008281076570e-05
00.66    4.99791205256806e-04    1.11752399375568e-04    1.14970961484356e-06    5.20866901287059e-05
00.67    5.30086961751603e-04    1.19672928335051e-04    1.22220464192058e-06    5.57846643303380e-05
00.68    5.61736575752618e-04    1.28071137285739e-04    1.29816904386751e-06    5.97063736203499e-05
00.69    5.94779743707997e-04    1.36973106201569e-04    1.37771707288259e-06    6.38641034255011e-05
00.70    6.29256810329128e-04    1.46406407859347e-04    1.46096466758592e-06    6.82708469196383e-05
00.71    6.65208783222717e-04    1.56400210566674e-04    1.54802938583973e-06    7.29403542417161e-05
00.72    7.02677347131491e-04    1.66985389320248e-04    1.63903033583828e-06    7.78871860955925e-05
00.73    7.41704882002251e-04    1.78194647185857e-04    1.73408810145705e-06    8.31267724215670e-05
00.74    7.82334482984127e-04    1.90062646628510e-04    1.83332464425088e-06    8.86754758804415e-05
00.75    8.24609983548285e-04    2.02626152808323e-04    1.93686317450753e-06    9.45506611156884e-05
00.76    8.68575985215129e-04    2.15924190351048e-04    2.04482791833214e-06    1.00770769684129e-04
00.77    9.14277890388969e-04    2.29998214284015e-04    2.15734385221324e-06    1.07355401935032e-04
00.78    9.61761936152091e-04    2.44892296943925e-04    2.27453638711857e-06    1.14325406338561e-04
00.79    1.01107523363441e-03    2.60653333705181e-04    2.39653098137091e-06    1.21702977785337e-04
00.80    1.06226580457241e-03    2.77331268555511e-04    2.52345275084946e-06    1.29511766037010e-04
00.81    1.11538262412476e-03    2.94979343515919e-04    2.65542602545021e-06    1.37776995803870e-04
00.82    1.17047566567124e-03    3.13654373984717e-04    2.79257381510082e-06    1.46525599598411e-04
00.83    1.22759595609325e-03    3.33417053797322e-04    2.93501720389880e-06    1.55786364961129e-04
00.84    1.28679564009833e-03    3.54332294462064e-04    3.08287456057189e-06    1.65590098160580e-04
00.85    1.34812805605150e-03    3.76469602090002e-04    3.23626059957270e-06    1.75969805917698e-04
00.86    1.41164782451666e-03    3.99903498955280e-04    3.39528525678129e-06    1.86960898769679e-04
00.87    1.47741094298069e-03    4.24713994626865e-04    3.56005230274198e-06    1.98601418390521e-04
00.88    1.54547489156843e-03    4.50987115382784e-04    3.73065778836315e-06    2.10932293578148e-04
00.89    1.61589874530079e-03    4.78815502227421e-04    3.90718814798517e-06    2.23997629609940e-04
00.90    1.68874329745466e-03    5.08299092746382e-04    4.08971795805680e-06    2.37845038653459e-04
00.91    1.76407120023522e-03    5.39545904858684e-04    4.27830715512111e-06    2.52526018930935e-04
00.92    1.84194712212580e-03    5.72672938252208e-04    4.47299776275944e-06    2.68096390853030e-04
00.93    1.92243792547938e-03    6.07807207799085e-04    4.67381006001910e-06    2.84616795881635e-04
00.94    2.00561286005884e-03    6.45086925464806e-04    4.88073824619552e-06    3.02153266585122e-04
00.95    2.09154377757274e-03    6.84662854663218e-04    5.09374563214944e-06    3.20777880058769e-04
00.96    2.18030536590207e-03    7.26699883700488e-04    5.31275918592370e-06    3.40569519000616e-04
00.97    2.27197542783957e-03    7.71378876191606e-04    5.53766317245248e-06    3.61614769761140e-04
00.98    2.36663523326559e-03    8.18898853467071e-04    5.76829133040980e-06    3.84008987552783e-04
00.99    2.46436998438129e-03    8.69479481593549e-04    6.00441699677097e-06    4.07857519465104e-04
01.00    2.56526942840959e-03    9.23363689582855e-04    6.24574053401648e-06    4.33277004674239e-04
01.01    2.66942859511128e-03    9.80820008114901e-04    6.49187525454770e-06    4.60396559798572e-04
01.02    2.77694854529856e-03    1.04214403813097e-03    6.74233474985254e-06    4.89358559340785e-04
01.03    2.88793689004864e-03    1.10765845431032e-03    6.99652768739184e-06    5.20318717871812e-04
01.04    3.00250772932763e-03    1.17771127263585e-03    7.25376773979084e-06    5.53445324425235e-04
01.05    3.12078064026254e-03    1.25267288919950e-03    7.51330594529060e-06    5.88917851416729e-04
01.06    3.24287846300573e-03    1.33293356264205e-03    7.77438923873399e-06    6.26925719273422e-04
01.07    3.36892392323800e-03    1.41890426955919e-03    8.03634178623758e-06    6.67668608950775e-04
01.08    3.49903558863006e-03    1.51102449377512e-03    8.29865601004639e-06    7.11360029896948e-04
01.09    3.63332417919248e-03    1.60977959050116e-03    8.56107203340834e-06    7.58235424938163e-04
01.10    3.77189064339960e-03    1.71572720476802e-03    8.82362262961178e-06    8.08564588825237e-04
01.11    3.91482750310023e-03    1.82952706857262e-03    9.08663142054013e-06    8.62665704374561e-04
01.12    4.06222454474684e-03    1.95196279546441e-03    9.35067566212595e-06    9.20915551483819e-04
01.13    4.21417900529915e-03    2.08394057518686e-03    9.61655785166286e-06    9.83748642739133e-04
01.14    4.37080905795459e-03    2.22645081415146e-03    9.88536060076868e-06    1.05163856182931e-03
01.15    4.53226793546424e-03    2.38048672410282e-03    1.01586737682267e-05    1.12505859599121e-03
01.16    4.69875473350318e-03    2.54692852043050e-03    1.04390621552451e-05    1.20442581444654e-03
01.17    4.87051732645628e-03    2.72642011084588e-03    1.07307785336168e-05    1.29004155780495e-03
01.18    5.04784304282528e-03    2.91928096410837e-03    1.10406264541482e-05    1.38204899167870e-03
01.19    5.23103411845246e-03    3.12550212168098e-03    1.13787676979605e-05    1.48043148391562e-03
01.20    5.42036757592926e-03    3.34486633875169e-03    1.17591870786500e-05    1.58507129300614e-03
01.21    5.61604301036035e-03    3.57720637995704e-03    1.21995147901966e-05    1.69587554722332e-03
01.22    5.81812677671455e-03    3.82277646768692e-03    1.27199913440719e-05    1.81295756937700e-03
01.23    6.02650606682069e-03    4.08266873014474e-03    1.33415455896119e-05    1.93684058608231e-03
01.24    6.24087003465312e-03    4.35917174410674e-03    1.40832077440182e-05    2.06863380603289e-03
01.25    6.46073522220709e-03    4.65595440592050e-03    1.49593301695389e-05    2.21012382874234e-03
01.26    6.68552740812221e-03    4.97797435995126e-03    1.59772557477715e-05    2.36373180149778e-03
01.27    6.91472062756173e-03    5.33105806976175e-03    1.71360947035807e-05    2.53230979347546e-03
01.28    7.14801749220312e-03    5.72117289292468e-03    1.84271177639373e-05    2.71878545886328e-03
01.29    7.38553639817211e-03    6.15349602482405e-03    1.98359789773458e-05    2.92570540177527e-03
01.30    7.62795593269042e-03    6.63146197443836e-03    2.13466354451496e-05    3.15476558487670e-03
01.31    7.87656084893474e-03    7.15602019604929e-03    2.29465705312549e-05    3.40644215913460e-03
01.32    8.13314206305993e-03    7.72534210894484e-03    2.46328904715568e-05    3.67984050507101e-03
01.33    8.39972652393585e-03    8.33517368625554e-03    2.64191257083880e-05    3.97285976578162e-03
01.34    8.67814863334613e-03    8.97993740739132e-03    2.83430876830228e-05    4.28272505640487e-03
01.35    8.96951613381053e-03    9.65455788689027e-03    3.04767475459482e-05    4.60687587996020e-03
01.36    9.27366003238011e-03    1.03568397187920e-02    3.29395605688836e-05    4.94412718211592e-03
01.37    9.58868026194673e-03    1.10900907886520e-02    3.59167662887086e-05    5.29595242246614e-03
01.38    9.91069913138409e-03    1.18655869913831e-02    3.96836034108332e-05    5.66768957832253e-03
01.39    1.02339137573609e-02    1.27044366575430e-02    4.46350307303149e-05    6.06945188397370e-03
01.40    1.05510044936459e-02    1.36384369593342e-02    5.13186467506843e-05    6.51654173235641e-03
01.41    1.08539220086733e-02    1.47096176873735e-02    6.04668176130999e-05    7.02921766230153e-03
01.42    1.11350442767330e-02    1.59683268567639e-02    7.30228988104725e-05    7.63174555700196e-03
01.43    1.13886651919088e-02    1.74699093336317e-02    9.01556223479770e-05    8.35076646955363e-03
01.44    1.16127479485963e-02    1.92702361187687e-02    1.13255309911787e-04    9.21311953967146e-03
01.45    1.18108397521228e-02    2.14205089804525e-02    1.43906575248034e-04    1.02433414889270e-02
01.46    1.19940101186669e-02    2.39619005927080e-02    1.83834389353165e-04    1.14611265633809e-02
01.47    1.21826387296747e-02    2.69207525004969e-02    2.34823596527748e-04    1.28791055385058e-02
01.48    1.24078753782570e-02    3.03052262985267e-02    2.98617149870746e-04    1.45013817118855e-02
01.49    1.27126205223709e-02    3.41045154417127e-02    3.76792752498637e-04    1.63233505990877e-02
01.50    1.31518865534414e-02    3.82920119869624e-02    4.70608539733101e-04    1.83334798779619e-02
01.51    1.37924833960188e-02    4.28338582236297e-02    5.80828233904513e-04    2.05177968129734e-02
01.52    1.47120312286113e-02    4.77038111071362e-02    7.07557428249754e-04    2.28676134344206e-02
01.53    1.59972775862041e-02    5.29045358635201e-02    8.50096161912332e-04    2.53906322297053e-02
01.54    1.77417378213650e-02    5.84938586247125e-02    1.00678847951929e-03    2.81247828761249e-02
01.55    2.00426671907882e-02    6.46117912053248e-02    1.17488210701627e-03    3.11527124426800e-02
01.56    2.29970741119379e-02    7.15006995830437e-02    1.35046355445578e-03    3.46129562119755e-02
01.57    2.66964650144641e-02    7.95086244684946e-02    1.52851135722246e-03    3.87023661039623e-02
01.58    3.12205948001846e-02    8.90658465513046e-02    1.70305481026237e-03    4.36641423724521e-02
01.59    3.66315253482293e-02    1.00627662509042e-01    1.86750720633286e-03    4.97571396551757e-02
01.60    4.29699288555155e-02    1.14582782647889e-01    2.01537778995625e-03    5.72055703070724e-02
01.61    5.02553149007176e-02    1.31136453259304e-01    2.14150084559476e-03    6.61337204857116e-02
01.62    5.84907665356089e-02    1.50188040823635e-01    2.24376603731224e-03    7.64965574277943e-02
01.63    6.76705157726602e-02    1.71230954512632e-01    2.32525694705280e-03    8.80221233285088e-02
01.64    7.77852676509040e-02    1.93305251101534e-01    2.39650390277380e-03    1.00183392303039e-01
01.65    8.88174219671914e-02    2.15028033511812e-01    2.47724703911850e-03    1.12214416604997e-01
01.66    1.00718609548853e-01    2.34713319269686e-01    2.59691051814588e-03    1.23177703985234e-01
01.67    1.13366513861429e-01    2.50573591367171e-01    2.79300726403200e-03    1.32078212103450e-01
01.68    1.26506573680774e-01    2.60974736665799e-01    3.10700653879953e-03    1.38007226775439e-01
01.69    1.39694409095481e-01    2.64700490589068e-01    3.57786734056466e-03    1.40290364573619e-01
01.70    1.52262448161462e-01    2.61176392667521e-01    4.23432182823843e-03    1.38610785016180e-01
01.71    1.63334738177498e-01    2.50608674108422e-01    5.08772770489455e-03    1.33082551431267e-01
01.72    1.71904757208365e-01    2.34009623413426e-01    6.12754653820545e-03    1.24259090492712e-01
01.73    1.76973475233065e-01    2.13103176495940e-01    7.32103203435151e-03    1.13074865779306e-01
01.74    1.77724159260544e-01    1.90126532459025e-01    8.61756915901714e-03    1.00731004623304e-01
01.75    1.73694221191267e-01    1.67560037219436e-01    9.95661857100056e-03    8.85445858114248e-02
01.76    1.64899682267864e-01    1.47825529434090e-01    1.12769663011753e-02    7.77851171161345e-02
01.77    1.51877198623817e-01    1.32993129491682e-01    1.25245437918905e-02    6.95208227533755e-02
01.78    1.35629637383069e-01    1.24531093152927e-01    1.36567128152966e-02    6.44934400274237e-02
01.79    1.17487020656878e-01    1.23126378207497e-01    1.46423604127954e-02    6.30351850052251e-02
01.80    9.89159449882416e-02    1.28596472370755e-01    1.54587857403113e-02    6.50364047755426e-02
01.81    8.13200870964646e-02    1.39905367411202e-01    1.60874775686164e-02    6.99672491211019e-02
01.82    6.58703876116635e-02    1.55287034918203e-01    1.65110184547047e-02    7.69511083548764e-02
01.83    5.33895917319006e-02    1.72467276825014e-01    1.67125171377064e-02    8.48814308250565e-02
01.84    4.42987131779805e-02    1.88959821221611e-01    1.66776502739226e-02    9.25673493055737e-02
01.85    3.86192765636710e-02    2.02397730011297e-01    1.63982350964261e-02    9.88884852369758e-02
01.86    3.60184530217057e-02    2.10850928967047e-01    1.58757377906068e-02    1.02936892330415e-01
01.87    3.58841360424694e-02    2.13078934954670e-01    1.51233875406168e-02    1.04125443877343e-01
01.88    3.74202020739930e-02    2.08676517310555e-01    1.41663447624968e-02    1.02247094467497e-01
01.89    3.97545413399717e-02    1.98088778090248e-01    1.30401565632369e-02    9.74777788280791e-02
01.90    4.20517690278626e-02    1.82497174580737e-01    1.17881628026998e-02    9.03256260802947e-02
01.91    4.36193354497078e-02    1.63603148978513e-01    1.04585526937604e-02    8.15384096112682e-02
01.92    4.39923431631689e-02    1.43354662628303e-01    9.10157166531382e-03    7.19875722988731e-02
01.93    4.29822245246225e-02    1.23668978740413e-01    7.76706217997532e-03    6.25497263276022e-02
01.94    4.06795802887102e-02    1.06201441508193e-01    6.50223946361330e-03    5.40051376326425e-02
01.95    3.74112221967433e-02    9.21953411492480e-02    5.34958550605080e-03    4.69674639343942e-02
