# RiF 1e-20 (cm^2/W)
# 1w(eV) RpP                     RpS                     RsP                     RsS
00.01    5.29896968724762e-08    2.65120160217015e-09    1.15345701860028e-11    4.56731574142437e-10
00.02    6.38697742107083e-08    3.19717513468961e-09    1.39050575856002e-11    5.50781620840386e-10
00.03    8.66949529389115e-08    4.34305272317647e-09    1.88787184001877e-11    7.48169871838257e-10
00.04    1.23590386655654e-07    6.19654336940437e-09    2.69199771584962e-11    1.06744605927701e-09
00.05    1.77732289682604e-07    8.91886627000476e-09    3.87232667151850e-11    1.53637444045722e-09
00.06    2.53335942913026e-07    1.27244271545552e-08    5.52107753891116e-11    2.19187705155146e-09
00.07    3.55642315852687e-07    1.78805175639877e-08    7.75300153185333e-11    3.07998021382656e-09
00.08    4.90904712193238e-07    2.47071054025335e-08    1.07051505384647e-10    4.25577658445835e-09
00.09    6.66376613520216e-07    3.35767754285011e-08    1.45366834667549e-10    5.78341262589658e-09
00.10    8.90301365192274e-07    4.49148533265081e-08    1.94287235606296e-10    7.73610713723700e-09
00.11    1.17190391161350e-06    5.91997233528661e-08    2.55842721664485e-10    1.01962029642951e-08
00.12    1.52138446396447e-06    7.69633342995105e-08    3.32281742130136e-10    1.32552506268435e-08
00.13    1.94991367968572e-06    9.87918763749158e-08    4.26071285578891e-10    1.70141212528569e-08
00.14    2.46962896950329e-06    1.25326610246681e-07    5.39897349486180e-10    2.15831450508043e-08
00.15    3.09363147686373e-06    1.57264827511383e-07    6.76665619687261e-10    2.70822725385470e-08
00.16    3.83598345846491e-06    1.95360933770092e-07    8.39502377854362e-10    3.36412561393944e-08
00.17    4.71170577697704e-06    2.40427641307884e-07    1.03175549257303e-09    4.13998505334571e-08
00.18    5.73677543962985e-06    2.93337272171132e-07    1.25699554240303e-09    5.05080315856719e-08
00.19    6.92812306720710e-06    3.55023169389205e-07    1.51901702190277e-09    6.11262333778207e-08
00.20    8.30363030769666e-06    4.26481222610219e-07    1.82183962690864e-09    7.34256044723103e-08
00.21    9.88212712596435e-06    5.08771504637081e-07    2.16970963930964e-09    8.75882830002684e-08
00.22    1.16833890490040e-05    6.03020035661659e-07    2.56710133829935e-09    1.03807692243386e-07
00.23    1.37281342699039e-05    7.10420664508304e-07    3.01871855117872e-09    1.22288857010090e-07
00.24    1.60380207537197e-05    8.32237093194872e-07    3.52949620182456e-09    1.43248741984637e-07
00.25    1.86356431555973e-05    9.69805019813152e-07    4.10460199766218e-09    1.66916612641247e-07
00.26    2.15445297506142e-05    1.12453445053385e-06    4.74943816597902e-09    1.93534420595321e-07
00.27    2.47891391915675e-05    1.29791213227244e-06    5.46964327923024e-09    2.23357213424080e-07
00.28    2.83948571966201e-05    1.49150416100941e-06    6.27109422842799e-09    2.56653571897511e-07
00.29    3.23879930966669e-05    1.70695873697235e-06    7.15990817300211e-09    2.93706074489920e-07
00.30    3.67957763947293e-05    1.94600909837376e-06    8.14244465698184e-09    3.34811792281379e-07
00.31    4.16463530898350e-05    2.21047662410081e-06    9.22530765699927e-09    3.80282814820001e-07
00.32    4.69687820121437e-05    2.50227413857294e-06    1.04153475798608e-08    4.30446808529773e-07
00.33    5.27930311165915e-05    2.82340942256961e-06    1.17196634254235e-08    4.85647611263294e-07
00.34    5.91499738131128e-05    3.17598894830150e-06    1.31456049020428e-08    5.46245862522976e-07
00.35    6.60713852754755e-05    3.56222186266380e-06    1.47007745891224e-08    6.12619673982608e-07
00.36    7.35899388686664e-05    3.98442422523009e-06    1.63930302722613e-08    6.85165340652273e-07
00.37    8.17392028015460e-05    4.44502352722434e-06    1.82304871134515e-08    7.64298097551201e-07
00.38    9.05536366422881e-05    4.94656345930553e-06    2.02215200442351e-08    8.50452922032978e-07
00.39    1.00068588026829e-04    5.49170900350699e-06    2.23747659283380e-08    9.44085385880766e-07
00.40    1.10320289235866e-04    6.08325180401073e-06    2.46991259875788e-08    1.04567255971712e-06
00.41    1.21345853924326e-04    6.72411586805467e-06    2.72037680644213e-08    1.15571397253529e-06
00.42    1.33183273516185e-04    7.41736361853103e-06    2.98981291042215e-08    1.27473263030745e-06
00.43    1.45871413960476e-04    8.16620230390432e-06    3.27919177339793e-08    1.40327609816449e-06
00.44    1.59450012471147e-04    8.97399082984921e-06    3.58951167249536e-08    1.54191765268134e-06
00.45    1.73959674312259e-04    9.84424699423206e-06    3.92179854264284e-08    1.69125750730263e-06
00.46    1.89441869994861e-04    1.07806552148328e-05    4.27710619969391e-08    1.85192412001687e-06
00.47    2.05938932586180e-04    1.17870747222785e-05    4.65651654309282e-08    2.02457558546517e-06
00.48    2.23494055408195e-04    1.28675483233823e-05    5.06113970258411e-08    2.20990111953670e-06
00.49    2.42151289861619e-04    1.40263116924400e-05    5.49211422115347e-08    2.40862263997164e-06
00.50    2.61955543943984e-04    1.52678033017083e-05    5.95060720888866e-08    2.62149644781535e-06
00.51    2.82952580486420e-04    1.65966750135222e-05    6.43781438704157e-08    2.84931502318817e-06
00.52    3.05189016560791e-04    1.80178032659588e-05    6.95496052293384e-08    3.09290892439219e-06
00.53    3.28712322481527e-04    1.95363011691609e-05    7.50329928230225e-08    3.35314883013747e-06
00.54    3.53570821900644e-04    2.11575312450570e-05    8.08411372043246e-08    3.63094769821970e-06
00.55    3.79813692193317e-04    2.28871192494969e-05    8.69871625557326e-08    3.92726309116735e-06
00.56    4.07490965428247e-04    2.47309688424865e-05    9.34844877538499e-08    4.24309965094372e-06
00.57    4.36653530157209e-04    2.66952773865387e-05    1.00346825625969e-07    4.57951175519583e-06
00.58    4.67353133237769e-04    2.87865527995659e-05    1.07588184730870e-07    4.93760636728586e-06
00.59    4.99642383087714e-04    3.10116316024240e-05    1.15222864852574e-07    5.31854607974923e-06
00.60    5.33574752552429e-04    3.33776983257231e-05    1.23265454975300e-07    5.72355241346643e-06
00.61    5.69204583058397e-04    3.58923060293774e-05    1.31730833914954e-07    6.15390932931071e-06
00.62    6.06587089135144e-04    3.85633985098685e-05    1.40634167927070e-07    6.61096703256009e-06
00.63    6.45778364925714e-04    4.13993340082891e-05    1.49990909152466e-07    7.09614605198645e-06
00.64    6.86835391032054e-04    4.44089106752638e-05    1.59816794535289e-07    7.61094161871812e-06
00.65    7.29816045062283e-04    4.76013941935310e-05    1.70127843029042e-07    8.15692838157462e-06
00.66    7.74779113325958e-04    5.09865475635745e-05    1.80940344130851e-07    8.73576545683638e-06
00.67    8.21784304896117e-04    5.45746632666509e-05    1.92270845356439e-07    9.34920184238566e-06
00.68    8.70892266949083e-04    5.83765980162153e-05    2.04136132792732e-07    9.99908224560921e-06
00.69    9.22164601333277e-04    6.24038103171351e-05    2.16553212551335e-07    1.06873533912319e-05
00.70    9.75663881636053e-04    6.66684009621022e-05    2.29539290337533e-07    1.14160708534811e-05
00.71    1.03145367086132e-03    7.11831566467603e-05    2.43111759675094e-07    1.21874064973893e-05
00.72    1.08959853830416e-03    7.59615970743857e-05    2.57288190827549e-07    1.30036565772807e-05
00.73    1.15016408172549e-03    8.10180264341870e-05    2.72086320275219e-07    1.38672506169319e-05
00.74    1.21321695150135e-03    8.63675890128499e-05    2.87524036324228e-07    1.47807610048517e-05
00.75    1.27882487870501e-03    9.20263298015306e-05    3.03619358641315e-07    1.57469134516520e-05
00.76    1.34705671109945e-03    9.80112609093822e-05    3.20390397645392e-07    1.67685983022237e-05
00.77    1.41798245301090e-03    1.04340433838304e-04    3.37855307470295e-07    1.78488828758413e-05
00.78    1.49167330559532e-03    1.11033018441980e-04    3.56032229007605e-07    1.89910248996138e-05
00.79    1.56820171434662e-03    1.18109389933614e-04    3.74939221351917e-07    2.01984873094922e-05
00.80    1.64764141227690e-03    1.25591224042542e-04    3.94594193287333e-07    2.14749545377076e-05
00.81    1.73006747125235e-03    1.33501602507501e-04    4.15014830257346e-07    2.28243506007765e-05
00.82    1.81555635504541e-03    1.41865129392314e-04    4.36218505644770e-07    2.42508590963459e-05
00.83    1.90418598540734e-03    1.50708060253977e-04    4.58222186376854e-07    2.57589454190206e-05
00.84    1.99603581888663e-03    1.60058445967621e-04    4.81042309013912e-07    2.73533815094829e-05
00.85    2.09118693654064e-03    1.69946292438654e-04    5.04694632652620e-07    2.90392733171963e-05
00.86    2.18972214832079e-03    1.80403739584468e-04    5.29194067449950e-07    3.08220916044479e-05
00.87    2.29172610177223e-03    1.91465260941394e-04    5.54554456441048e-07    3.27077063089521e-05
00.88    2.39728540129241e-03    2.03167887878207e-04    5.80788337294302e-07    3.47024252348731e-05
00.89    2.50648873070699e-03    2.15551462629428e-04    6.07906647523190e-07    3.68130377441867e-05
00.90    2.61942698476620e-03    2.28658926531148e-04    6.35918375967749e-07    3.90468646182798e-05
00.91    2.73619341741458e-03    2.42536651810224e-04    6.64830128523798e-07    4.14118153573226e-05
00.92    2.85688380532394e-03    2.57234823270975e-04    6.94645620462056e-07    4.39164541198183e-05
00.93    2.98159663121198e-03    2.72807876736736e-04    7.25365090252527e-07    4.65700752753806e-05
00.94    3.11043328126046e-03    2.89315000724133e-04    7.56984641750471e-07    4.93827897721564e-05
00.95    3.24349826545282e-03    3.06820712023593e-04    7.89495521912501e-07    5.23656242613790e-05
00.96    3.38089946415852e-03    3.25395524845972e-04    8.22883288177292e-07    5.55306366799823e-05
00.97    3.52274843973040e-03    3.45116738261994e-04    8.57126807071903e-07    5.88910528447112e-05
00.98    3.66916086257074e-03    3.66069365187290e-04    8.92196966496248e-07    6.24614287251009e-05
00.99    3.82025711181005e-03    3.88347189216604e-04    9.28054985243239e-07    6.62578366358418e-05
01.00    3.97616310360800e-03    4.12053871778129e-04    9.64650205400840e-07    7.02980623158361e-05
01.01    4.13701132068482e-03    4.37303927705455e-04    1.00191763848114e-06    7.46017820694332e-05
01.02    4.30294188852959e-03    4.64223307599423e-04    1.03977583235860e-06    7.91906732981925e-05
01.03    4.47410338308080e-03    4.92949326243723e-04    1.07812620989210e-06    8.40884116423222e-05
01.04    4.65065290648117e-03    5.23629816043934e-04    1.11685522372941e-06    8.93205302184924e-05
01.05    4.83275496681504e-03    5.56421729201030e-04    1.15584051192805e-06    9.49141761808596e-05
01.06    5.02057888131522e-03    5.91489923146586e-04    1.19496144180674e-06    1.00897888671305e-04
01.07    5.21429484183753e-03    6.29007414345369e-04    1.23411302141168e-06    1.07301619397673e-04
01.08    5.41406939245405e-03    6.69158663452256e-04    1.27322042468269e-06    1.14157267637354e-04
01.09    5.62006170739828e-03    7.12147049974732e-04    1.31225018665475e-06    1.21499933727267e-04
01.10    5.83242246100499e-03    7.58206307633573e-04    1.35121435383854e-06    1.29369856236063e-04
01.11    6.05129707578139e-03    8.07613438479159e-04    1.39016641886032e-06    1.37814606647736e-04
01.12    6.27683448695020e-03    8.60698130261423e-04    1.42919250823428e-06    1.46890680322634e-04
01.13    6.50920138105140e-03    9.17842086358879e-04    1.46840708036703e-06    1.56663338847446e-04
01.14    6.74860033729322e-03    9.79462186838461e-04    1.50796676433731e-06    1.67203642972444e-04
01.15    6.99528881255133e-03    1.04597488257823e-03    1.54811661860076e-06    1.78582219611662e-04
01.16    7.24959472402958e-03    1.11774561921591e-03    1.58927685762643e-06    1.90860420204852e-04
01.17    7.51192392495596e-03    1.19503501364248e-03    1.63216472115539e-06    2.04080913756490e-04
01.18    7.78275503033137e-03    1.27796034618723e-03    1.67792787872883e-06    2.18260959168378e-04
01.19    8.06261804875636e-03    1.36649359705875e-03    1.72824877821364e-06    2.33392076991710e-04
01.20    8.35205520835474e-03    1.46051328349715e-03    1.78537073662011e-06    2.49449155274050e-04
01.21    8.65156533491379e-03    1.55991600883006e-03    1.85200324815893e-06    2.66410048993938e-04
01.22    8.96153774917585e-03    1.66477670178704e-03    1.93108879045780e-06    2.84283768356509e-04
01.23    9.28218706291800e-03    1.77552787166151e-03    2.02545301837006e-06    3.03142076287748e-04
01.24    9.61350568285330e-03    1.89311332120270e-03    2.13740443094489e-06    3.23146687772382e-04
01.25    9.95525377626844e-03    2.01906598926748e-03    2.26838329318109e-06    3.44563217702465e-04
01.26    1.03070047635452e-02    2.15546677201892e-03    2.41876773585460e-06    3.67754242714379e-04
01.27    1.06682559533001e-02    2.30476204682552e-03    2.58791971754613e-06    3.93147473704699e-04
01.28    1.10385985456139e-02    2.46944929200911e-03    2.77449668337132e-06    4.21180578024580e-04
01.29    1.14179213887189e-02    2.65167648048589e-03    2.97698166527405e-06    4.52230569232716e-04
01.30    1.18066035691647e-02    2.85283358055677e-03    3.19432047726061e-06    4.86541465163115e-04
01.31    1.22056390763710e-02    3.07323536769440e-03    3.42652988053498e-06    5.24167646299243e-04
01.32    1.26166385606172e-02    3.31199725084216e-03    3.67517918735837e-06    5.64950854647556e-04
01.33    1.30416712663853e-02    3.56718656705066e-03    3.94375616717611e-06    6.08545441837854e-04
01.34    1.34829427448967e-02    3.83629162804317e-03    4.23808592333259e-06    6.54499409398858e-04
01.35    1.39423442499181e-02    4.11699514924947e-03    4.56713201642467e-06    7.02388965482378e-04
01.36    1.44209474031169e-02    4.40817668656959e-03    4.94460844417749e-06    7.51993346036594e-04
01.37    1.49185421554619e-02    4.71101185872452e-03    5.39182562837802e-06    8.03486594946307e-04
01.38    1.54333192266026e-02    5.02999608372599e-03    5.94202098519405e-06    8.57615918899515e-04
01.39    1.59617807314821e-02    5.37370639956330e-03    6.64608915668359e-06    9.15833726918560e-04
01.40    1.64989320620699e-02    5.75513130949034e-03    7.57918046961604e-06    9.80353416987873e-04
01.41    1.70387775664247e-02    6.19144394913104e-03    8.84723467714492e-06    1.05410714871185e-03
01.42    1.75751160773793e-02    6.70316211787388e-03    1.05922652196304e-05    1.14059635499907e-03
01.43    1.81026094152122e-02    7.31272140411926e-03    1.29951016200320e-05    1.24364099531280e-03
01.44    1.86180806203852e-02    8.04257438289294e-03    1.62744223484226e-05    1.36704943075912e-03
01.45    1.91219827824398e-02    8.91299711452845e-03    2.06812047043586e-05    1.51424278219123e-03
01.46    1.96199389675205e-02    9.93983131060764e-03    2.64880801608075e-05    1.68787518819438e-03
01.47    2.01242367918861e-02    1.11324523292221e-02    3.39742279689684e-05    1.88950126378884e-03
01.48    2.06552042061922e-02    1.24923141394616e-02    4.34077678528510e-05    2.11935114370610e-03
01.49    2.12424331093582e-02    1.40124827170794e-02    5.50262926564794e-05    2.37628092639558e-03
01.50    2.19258625542142e-02    1.56786900992734e-02    6.90143631255096e-05    2.65798806989969e-03
01.51    2.27567667947406e-02    1.74724849070780e-02    8.54810986095147e-05    2.96159659287039e-03
01.52    2.37986368624962e-02    1.93768045055418e-02    1.04443681064010e-04    3.28467512208405e-03
01.53    2.51278953429895e-02    2.13839114067574e-02    1.25817706945777e-04    3.62668396670211e-03
01.54    2.68341423198571e-02    2.35050034477871e-02    1.49411201097643e-04    3.99073898023898e-03
01.55    2.90192055996532e-02    2.57799650148751e-02    1.74920178043944e-04    4.38542642076355e-03
01.56    3.17940219930962e-02    2.82846135302695e-02    2.01935648899967e-04    4.82618575281928e-03
01.57    3.52724001660163e-02    3.11317599083767e-02    2.29967668215268e-04    5.33556184462534e-03
01.58    3.95612599804384e-02    3.44626752191921e-02    2.58478387853652e-04    5.94164619064671e-03
01.59    4.47481907993521e-02    3.84269220967779e-02    2.86930287005261e-04    6.67425783316472e-03
01.60    5.08886179468979e-02    4.31509311569786e-02    3.14874521347280e-04    7.55887235456225e-03
01.61    5.79959059049746e-02    4.86990367244525e-02    3.42098136540772e-04    8.60897359929183e-03
01.62    6.60375014686159e-02    5.50340037335324e-02    3.68831467109908e-04    9.81819670753831e-03
01.63    7.49380066258781e-02    6.19861840207376e-02    3.96003533233802e-04    1.11541043502813e-02
01.64    8.45862018724951e-02    6.92404840233434e-02    4.25505035019877e-04    1.25554940825173e-02
01.65    9.48395027213933e-02    7.63480433621254e-02    4.60381700286417e-04    1.39346869752782e-02
01.66    1.05518265902780e-01    8.27651450758674e-02    5.04858235178165e-04    1.51853276660541e-02
01.67    1.16385427875209e-01    8.79162945209679e-02    5.64100135301320e-04    1.61950320648982e-02
01.68    1.27114202714106e-01    9.12730253439051e-02    6.43664391279264e-04    1.68610742798341e-02
01.69    1.37255612439617e-01    9.24361162566526e-02    7.48675103805673e-04    1.71065098003807e-02
01.70    1.46224350577297e-01    9.12073069438143e-02    8.82868226206335e-04    1.68938708773353e-02
01.71    1.53321683565478e-01    8.76375725790697e-02    1.04772614157776e-03    1.62338921218669e-02
01.72    1.57805806868729e-01    8.20424775363512e-02    1.24192793296696e-03    1.51875577486135e-02
01.73    1.59005052456460e-01    7.49804255369400e-02    1.46126869847564e-03    1.38609137036512e-02
01.74    1.56452801166019e-01    6.71956040910168e-02    1.69906371008229e-03    1.23932999668830e-02
01.75    1.50011675187198e-01    5.95329229323697e-02    1.94689774655938e-03    1.09406926058374e-02
01.76    1.39953443762110e-01    5.28362931163882e-02    2.19547516058058e-03    9.65653028813053e-03
01.77    1.26970613443741e-01    4.78436126367736e-02    2.43532528979565e-03    8.67266391759547e-03
01.78    1.12112854491157e-01    4.50919781823255e-02    2.65722601749255e-03    8.08295323479533e-03
01.79    9.66605394192572e-02    4.48454415942182e-02    2.85237412028534e-03    7.93163558496774e-03
01.80    8.19617582222629e-02    4.70553417071688e-02    3.01247232704712e-03    8.20798845680187e-03
01.81    6.92638130833912e-02    5.13599140925051e-02    3.12994712581132e-03    8.84804719463044e-03
01.82    5.95657437745370e-02    5.71254832075144e-02    3.19843163944113e-03    9.74326123579716e-03
01.83    5.35087991302264e-02    6.35261143337794e-02    3.21348275160461e-03    1.07550417492523e-02
01.84    5.13119806808641e-02    6.96525234089461e-02    3.17333764964119e-03    1.17332738032508e-02
01.85    5.27535923089828e-02    7.46352964058271e-02    3.07943646429534e-03    1.25361813960917e-02
01.86    5.71980321978909e-02    7.77636257031529e-02    2.93648395757555e-03    1.30486289560638e-02
01.87    6.36676858374861e-02    7.85802342902606e-02    2.75197760522492e-03    1.31961453368851e-02
01.88    7.09588806604949e-02    7.69364594561711e-02    2.53531669514902e-03    1.29526326738066e-02
01.89    7.77957105981261e-02    7.29985101985706e-02    2.29673576746747e-03    1.23408013879734e-02
01.90    8.30060104009695e-02    6.72052768563109e-02    2.04632833359002e-03    1.14256510518171e-02
01.91    8.56931122737452e-02    6.01876463908255e-02    1.79334870417240e-03    1.03025398332302e-02
01.92    8.53708654755359e-02    5.26665444346834e-02    1.54586434717276e-03    9.08226330934204e-03
01.93    8.20322313250017e-02    4.53497192128856e-02    1.31071240169320e-03    7.87585093794354e-03
01.94    7.61346485732845e-02    3.88457479385749e-02    1.09362179418667e-03    6.78157547115933e-03
01.95    6.85051120844014e-02    3.36082376849451e-02    8.99354123665238e-04    5.87598937898516e-03
