# RiF 1e-20 (cm^2/W) 1w RpP RpS RsP RsS
# Gaussian absolute broadening  0.04 [eV]
   0.0100000  3.502774e-08  1.064377e-06  6.338933e-07  2.103209e-07  4.837947e-04  2.749289e+01  2.263925e+00  
   0.0200000  4.228391e-08  1.271502e-06  7.573006e-07  2.512413e-07  5.776706e-04  3.283399e+01  2.703638e+00  
   0.0300000  5.134033e-08  1.525706e-06  9.087757e-07  3.014603e-07  6.927941e-04  3.938609e+01  3.243015e+00  
   0.0400000  6.261452e-08  1.836205e-06  1.093820e-06  3.627968e-07  8.332862e-04  4.738498e+01  3.901444e+00  
   0.0500000  7.658202e-08  2.212719e-06  1.318241e-06  4.371693e-07  1.003474e-03  5.707872e+01  4.699318e+00  
   0.0600000  9.376551e-08  2.664881e-06  1.587799e-06  5.264778e-07  1.207618e-03  6.871213e+01  5.656751e+00  
   0.0700000  1.147182e-07  3.201507e-06  1.907772e-06  6.324601e-07  1.449572e-03  8.250787e+01  6.792022e+00  
   0.0800000  1.400055e-07  3.829879e-06  2.282536e-06  7.565498e-07  1.732465e-03  9.864793e+01  8.120041e+00  
   0.0900000  1.701906e-07  4.555252e-06  2.715259e-06  8.997790e-07  2.058468e-03  1.172608e+02  9.651308e+00  
   0.1000000  2.058300e-07  5.380697e-06  3.207821e-06  1.062748e-06  2.428730e-03  1.384174e+02  1.139158e+01  
   0.1100000  2.474821e-07  6.307379e-06  3.760966e-06  1.245679e-06  2.843503e-03  1.621386e+02  1.334246e+01  
   0.1200000  2.957268e-07  7.335112e-06  4.374644e-06  1.448527e-06  3.302403e-03  1.884095e+02  1.550260e+01  
   0.1300000  3.511915e-07  8.463040e-06  5.048407e-06  1.671113e-06  3.804710e-03  2.171967e+02  1.786914e+01  
   0.1400000  4.145752e-07  9.690209e-06  5.781751e-06  1.913238e-06  4.349632e-03  2.484633e+02  2.043890e+01  
   0.1500000  4.866695e-07  1.101594e-05  6.574344e-06  2.174758e-06  4.936473e-03  2.821788e+02  2.320922e+01  
   0.1600000  5.683721e-07  1.244001e-05  7.426126e-06  2.455616e-06  5.564715e-03  3.183231e+02  2.617828e+01  
   0.1700000  6.606965e-07  1.396263e-05  8.337310e-06  2.755843e-06  6.234011e-03  3.568863e+02  2.934513e+01  
   0.1800000  7.647764e-07  1.558442e-05  9.308340e-06  3.075544e-06  6.944147e-03  3.978675e+02  3.270949e+01  
   0.1900000  8.818723e-07  1.730626e-05  1.033983e-05  3.414881e-06  7.695014e-03  4.412718e+02  3.627158e+01  
   0.2000000  1.013378e-06  1.912924e-05  1.143253e-05  3.774053e-06  8.486556e-03  4.871080e+02  4.003195e+01  
   0.2100000  1.160824e-06  2.105461e-05  1.258727e-05  4.153290e-06  9.318748e-03  5.353881e+02  4.399133e+01  
   0.2200000  1.325893e-06  2.308373e-05  1.380497e-05  4.552843e-06  1.019158e-02  5.861249e+02  4.815062e+01  
   0.2300000  1.510423e-06  2.521806e-05  1.508660e-05  4.972982e-06  1.110507e-02  6.393334e+02  5.251072e+01  
   0.2400000  1.716422e-06  2.745915e-05  1.643319e-05  5.413990e-06  1.205921e-02  6.950284e+02  5.707269e+01  
   0.2500000  1.946079e-06  2.980863e-05  1.784583e-05  5.876172e-06  1.305400e-02  7.532263e+02  6.183753e+01  
   0.2600000  2.201777e-06  3.226825e-05  1.932567e-05  6.359851e-06  1.408947e-02  8.139439e+02  6.680639e+01  
   0.2700000  2.486107e-06  3.483986e-05  2.087394e-05  6.865367e-06  1.516562e-02  8.771996e+02  7.198051e+01  
   0.2800000  2.801878e-06  3.752534e-05  2.249187e-05  7.393066e-06  1.628245e-02  9.430106e+02  7.736094e+01  
   0.2900000  3.152140e-06  4.032675e-05  2.418081e-05  7.943327e-06  1.743998e-02  1.011397e+03  8.294907e+01  
   0.3000000  3.540192e-06  4.324621e-05  2.594217e-05  8.516546e-06  1.863822e-02  1.082379e+03  8.874621e+01  
   0.3100000  3.969599e-06  4.628595e-05  2.777739e-05  9.113131e-06  1.987719e-02  1.155977e+03  9.475370e+01  
   0.3200000  4.444217e-06  4.944833e-05  2.968798e-05  9.733514e-06  2.115689e-02  1.232212e+03  1.009729e+02  
   0.3300000  4.968203e-06  5.273582e-05  3.167557e-05  1.037816e-05  2.247734e-02  1.311108e+03  1.074054e+02  
   0.3400000  5.546036e-06  5.615099e-05  3.374178e-05  1.104753e-05  2.383856e-02  1.392688e+03  1.140527e+02  
   0.3500000  6.182538e-06  5.969654e-05  3.588839e-05  1.174214e-05  2.524056e-02  1.476974e+03  1.209164e+02  
   0.3600000  6.882899e-06  6.337534e-05  3.811719e-05  1.246250e-05  2.668336e-02  1.563994e+03  1.279981e+02  
   0.3700000  7.652684e-06  6.719033e-05  4.043007e-05  1.320917e-05  2.816697e-02  1.653773e+03  1.352994e+02  
   0.3800000  8.497870e-06  7.114466e-05  4.282899e-05  1.398271e-05  2.969142e-02  1.746336e+03  1.428222e+02  
   0.3900000  9.424857e-06  7.524156e-05  4.531601e-05  1.478372e-05  3.125672e-02  1.841712e+03  1.505683e+02  
   0.4000000  1.044050e-05  7.948445e-05  4.789326e-05  1.561285e-05  3.286291e-02  1.939930e+03  1.585394e+02  
   0.4100000  1.155214e-05  8.387690e-05  5.056294e-05  1.647075e-05  3.450999e-02  2.041019e+03  1.667376e+02  
   0.4200000  1.276759e-05  8.842267e-05  5.332739e-05  1.735809e-05  3.619800e-02  2.145009e+03  1.751648e+02  
   0.4300000  1.409525e-05  9.312567e-05  5.618900e-05  1.827561e-05  3.792698e-02  2.251932e+03  1.838231e+02  
   0.4400000  1.554402e-05  9.798996e-05  5.915028e-05  1.922406e-05  3.969693e-02  2.361819e+03  1.927144e+02  
   0.4500000  1.712343e-05  1.030198e-04  6.221381e-05  2.020421e-05  4.150792e-02  2.474706e+03  2.018411e+02  
   0.4600000  1.884364e-05  1.082198e-04  6.538232e-05  2.121692e-05  4.335995e-02  2.590623e+03  2.112053e+02  
   0.4700000  2.071542e-05  1.135945e-04  6.865860e-05  2.226302e-05  4.525308e-02  2.709609e+03  2.208094e+02  
   0.4800000  2.275028e-05  1.191489e-04  7.204559e-05  2.334343e-05  4.718733e-02  2.831698e+03  2.306556e+02  
   0.4900000  2.496045e-05  1.248882e-04  7.554630e-05  2.445910e-05  4.916276e-02  2.956930e+03  2.407464e+02  
   0.5000000  2.735890e-05  1.308177e-04  7.916390e-05  2.561102e-05  5.117936e-02  3.085341e+03  2.510843e+02  
   0.5100000  2.995945e-05  1.369430e-04  8.290166e-05  2.680022e-05  5.323726e-02  3.216969e+03  2.616718e+02  
   0.5200000  3.277670e-05  1.432701e-04  8.676300e-05  2.802779e-05  5.533643e-02  3.351858e+03  2.725115e+02  
   0.5300000  3.582618e-05  1.498051e-04  9.075142e-05  2.929486e-05  5.747697e-02  3.490048e+03  2.836061e+02  
   0.5400000  3.912436e-05  1.565547e-04  9.487063e-05  3.060264e-05  5.965894e-02  3.631583e+03  2.949584e+02  
   0.5500000  4.268856e-05  1.635255e-04  9.912442e-05  3.195236e-05  6.188233e-02  3.776506e+03  3.065712e+02  
   0.5600000  4.653723e-05  1.707246e-04  1.035167e-04  3.334534e-05  6.414724e-02  3.924861e+03  3.184472e+02  
   0.5700000  5.068980e-05  1.781596e-04  1.080517e-04  3.478294e-05  6.645375e-02  4.076694e+03  3.305897e+02  
   0.5800000  5.516684e-05  1.858383e-04  1.127335e-04  3.626663e-05  6.880195e-02  4.232055e+03  3.430015e+02  
   0.5900000  5.999005e-05  1.937689e-04  1.175667e-04  3.779787e-05  7.119185e-02  4.390990e+03  3.556857e+02  
   0.6000000  6.518239e-05  2.019601e-04  1.225558e-04  3.937829e-05  7.362359e-02  4.553553e+03  3.686457e+02  
   0.6100000  7.076794e-05  2.104209e-04  1.277055e-04  4.100954e-05  7.609719e-02  4.719789e+03  3.818846e+02  
   0.6200000  7.677226e-05  2.191607e-04  1.330209e-04  4.269335e-05  7.861279e-02  4.889755e+03  3.954056e+02  
   0.6300000  8.322216e-05  2.281899e-04  1.385070e-04  4.443159e-05  8.117046e-02  5.063504e+03  4.092125e+02  
   0.6400000  9.014594e-05  2.375187e-04  1.441692e-04  4.622615e-05  8.377031e-02  5.241090e+03  4.233083e+02  
   0.6500000  9.757332e-05  2.471582e-04  1.500130e-04  4.807909e-05  8.641242e-02  5.422570e+03  4.376970e+02  
   0.6600000  1.055357e-04  2.571204e-04  1.560442e-04  4.999258e-05  8.909693e-02  5.608004e+03  4.523822e+02  
   0.6700000  1.140658e-04  2.674172e-04  1.622685e-04  5.196882e-05  9.182397e-02  5.797445e+03  4.673672e+02  
   0.6800000  1.231983e-04  2.780617e-04  1.686922e-04  5.401019e-05  9.459360e-02  5.990959e+03  4.826561e+02  
   0.6900000  1.329693e-04  2.890676e-04  1.753218e-04  5.611921e-05  9.740601e-02  6.188604e+03  4.982530e+02  
   0.7000000  1.434169e-04  3.004492e-04  1.821637e-04  5.829850e-05  1.002613e-01  6.390448e+03  5.141613e+02  
   0.7100000  1.545808e-04  3.122218e-04  1.892249e-04  6.055085e-05  1.031597e-01  6.596548e+03  5.303856e+02  
   0.7200000  1.665029e-04  3.244015e-04  1.965124e-04  6.287921e-05  1.061013e-01  6.806982e+03  5.469299e+02  
   0.7300000  1.792265e-04  3.370049e-04  2.040334e-04  6.528665e-05  1.090863e-01  7.021805e+03  5.637980e+02  
   0.7400000  1.927974e-04  3.500503e-04  2.117957e-04  6.777648e-05  1.121149e-01  7.241089e+03  5.809946e+02  
   0.7500000  2.072632e-04  3.635565e-04  2.198071e-04  7.035212e-05  1.151872e-01  7.464909e+03  5.985236e+02  
   0.7600000  2.226736e-04  3.775436e-04  2.280756e-04  7.301732e-05  1.183034e-01  7.693334e+03  6.163900e+02  
   0.7700000  2.390805e-04  3.920330e-04  2.366097e-04  7.577591e-05  1.214639e-01  7.926436e+03  6.345979e+02  
   0.7800000  2.565381e-04  4.070470e-04  2.454179e-04  7.863209e-05  1.246687e-01  8.164287e+03  6.531519e+02  
   0.7900000  2.751026e-04  4.226101e-04  2.545095e-04  8.159020e-05  1.279183e-01  8.406971e+03  6.720569e+02  
   0.8000000  2.948324e-04  4.387476e-04  2.638933e-04  8.465490e-05  1.312127e-01  8.654560e+03  6.913174e+02  
   0.8100000  3.157881e-04  4.554864e-04  2.735790e-04  8.783113e-05  1.345523e-01  8.907130e+03  7.109381e+02  
   0.8200000  3.380328e-04  4.728554e-04  2.835763e-04  9.112424e-05  1.379374e-01  9.164763e+03  7.309240e+02  
   0.8300000  3.616314e-04  4.908858e-04  2.938953e-04  9.453974e-05  1.413682e-01  9.427545e+03  7.512796e+02  
   0.8400000  3.866511e-04  5.096098e-04  3.045461e-04  9.808371e-05  1.448452e-01  9.695547e+03  7.720101e+02  
   0.8500000  4.131608e-04  5.290631e-04  3.155392e-04  1.017626e-04  1.483686e-01  9.968868e+03  7.931207e+02  
   0.8600000  4.412308e-04  5.492828e-04  3.268852e-04  1.055831e-04  1.519388e-01  1.024757e+04  8.146159e+02  
   0.8700000  4.709335e-04  5.703093e-04  3.385949e-04  1.095528e-04  1.555564e-01  1.053176e+04  8.365007e+02  
   0.8800000  5.023421e-04  5.921858e-04  3.506791e-04  1.136793e-04  1.592215e-01  1.082151e+04  8.587802e+02  
   0.8900000  5.355309e-04  6.149586e-04  3.631487e-04  1.179713e-04  1.629349e-01  1.111690e+04  8.814594e+02  
   0.9000000  5.705737e-04  6.386777e-04  3.760147e-04  1.224379e-04  1.666968e-01  1.141803e+04  9.045423e+02  
   0.9100000  6.075453e-04  6.633978e-04  3.892876e-04  1.270889e-04  1.705080e-01  1.172497e+04  9.280353e+02  
   0.9200000  6.465181e-04  6.891761e-04  4.029776e-04  1.319349e-04  1.743688e-01  1.203781e+04  9.519415e+02  
   0.9300000  6.875637e-04  7.160766e-04  4.170949e-04  1.369876e-04  1.782800e-01  1.235664e+04  9.762661e+02  
   0.9400000  7.307503e-04  7.441677e-04  4.316480e-04  1.422594e-04  1.822421e-01  1.268153e+04  1.001013e+03  
   0.9500000  7.761421e-04  7.735246e-04  4.466458e-04  1.477642e-04  1.862559e-01  1.301256e+04  1.026187e+03  
   0.9600000  8.237981e-04  8.042289e-04  4.620947e-04  1.535168e-04  1.903221e-01  1.334981e+04  1.051791e+03  
   0.9700000  8.737702e-04  8.363707e-04  4.780004e-04  1.595335e-04  1.944415e-01  1.369336e+04  1.077830e+03  
   0.9800000  9.261015e-04  8.700483e-04  4.943662e-04  1.658325e-04  1.986149e-01  1.404327e+04  1.104306e+03  
   0.9900000  9.808253e-04  9.053708e-04  5.111939e-04  1.724337e-04  2.028434e-01  1.439963e+04  1.131223e+03  
   1.0000000  1.037962e-03  9.424582e-04  5.284814e-04  1.793590e-04  2.071277e-01  1.476248e+04  1.158585e+03  
   1.0100000  1.097516e-03  9.814438e-04  5.462246e-04  1.866329e-04  2.114691e-01  1.513191e+04  1.186393e+03  
   1.0200000  1.159478e-03  1.022473e-03  5.644151e-04  1.942818e-04  2.158688e-01  1.550799e+04  1.214651e+03  
   1.0300000  1.223817e-03  1.065705e-03  5.830413e-04  2.023348e-04  2.203280e-01  1.589077e+04  1.243361e+03  
   1.0400000  1.290490e-03  1.111309e-03  6.020877e-04  2.108231e-04  2.248483e-01  1.628032e+04  1.272526e+03  
   1.0500000  1.359439e-03  1.159464e-03  6.215364e-04  2.197791e-04  2.294313e-01  1.667671e+04  1.302148e+03  
   1.0599999  1.430606e-03  1.210357e-03  6.413689e-04  2.292367e-04  2.340783e-01  1.708003e+04  1.332232e+03  
   1.0700001  1.503944e-03  1.264180e-03  6.615689e-04  2.392309e-04  2.387913e-01  1.749036e+04  1.362781e+03  
   1.0800000  1.579434e-03  1.321134e-03  6.821259e-04  2.497982e-04  2.435716e-01  1.790777e+04  1.393798e+03  
   1.0900000  1.657101e-03  1.381442e-03  7.030396e-04  2.609787e-04  2.484209e-01  1.833238e+04  1.425290e+03  
   1.1000000  1.737032e-03  1.445357e-03  7.243239e-04  2.728183e-04  2.533405e-01  1.876429e+04  1.457261e+03  
   1.1100000  1.819377e-03  1.513183e-03  7.460093e-04  2.853722e-04  2.583320e-01  1.920362e+04  1.489717e+03  
   1.1200000  1.904354e-03  1.585284e-03  7.681437e-04  2.987064e-04  2.633969e-01  1.965046e+04  1.522663e+03  
   1.1300000  1.992243e-03  1.662083e-03  7.907929e-04  3.128981e-04  2.685370e-01  2.010492e+04  1.556104e+03  
   1.1400000  2.083385e-03  1.744041e-03  8.140405e-04  3.280315e-04  2.737546e-01  2.056706e+04  1.590042e+03  
   1.1500000  2.178211e-03  1.831612e-03  8.379946e-04  3.441889e-04  2.790524e-01  2.103696e+04  1.624479e+03  
   1.1600000  2.277306e-03  1.925181e-03  8.628005e-04  3.614397e-04  2.844342e-01  2.151463e+04  1.659412e+03  
   1.1700000  2.381538e-03  2.024993e-03  8.886670e-04  3.798273e-04  2.899038e-01  2.200012e+04  1.694844e+03  
   1.1799999  2.492245e-03  2.131111e-03  9.159102e-04  3.993601e-04  2.954656e-01  2.249345e+04  1.730769e+03  
   1.1900001  2.611482e-03  2.243414e-03  9.450055e-04  4.200121e-04  3.011243e-01  2.299467e+04  1.767193e+03  
   1.2000000  2.742278e-03  2.361654e-03  9.766502e-04  4.417338e-04  3.068841e-01  2.350386e+04  1.804113e+03  
   1.2100000  2.888861e-03  2.485608e-03  1.011813e-03  4.644790e-04  3.127489e-01  2.402113e+04  1.841538e+03  
   1.2200000  3.056729e-03  2.615265e-03  1.051759e-03  4.882415e-04  3.187220e-01  2.454666e+04  1.879476e+03  
   1.2300000  3.252533e-03  2.751048e-03  1.098023e-03  5.130939e-04  3.248058e-01  2.508064e+04  1.917938e+03  
   1.2400000  3.483639e-03  2.893986e-03  1.152312e-03  5.392227e-04  3.310010e-01  2.562328e+04  1.956936e+03  
   1.2500000  3.757398e-03  3.045811e-03  1.216345e-03  5.669432e-04  3.373083e-01  2.617474e+04  1.996479e+03  
   1.2600000  4.080145e-03  3.208890e-03  1.291618e-03  5.966884e-04  3.437268e-01  2.673513e+04  2.036570e+03  
   1.2700000  4.456075e-03  3.385995e-03  1.379149e-03  6.289663e-04  3.502559e-01  2.730443e+04  2.077206e+03  
   1.2800000  4.886251e-03  3.579930e-03  1.479241e-03  6.642891e-04  3.568956e-01  2.788244e+04  2.118367e+03  
   1.2900000  5.368065e-03  3.793042e-03  1.591346e-03  7.030845e-04  3.636471e-01  2.846871e+04  2.160014e+03  
   1.3000000  5.895544e-03  4.026748e-03  1.714122e-03  7.456075e-04  3.705144e-01  2.906249e+04  2.202088e+03  
   1.3099999  6.460840e-03  4.281183e-03  1.845733e-03  7.918744e-04  3.775052e-01  2.966262e+04  2.244499e+03  
   1.3200001  7.057249e-03  4.555065e-03  1.984497e-03  8.416404e-04  3.846314e-01  3.026757e+04  2.287126e+03  
   1.3300000  7.683888e-03  4.845896e-03  2.129870e-03  8.944345e-04  3.919088e-01  3.087531e+04  2.329816e+03  
   1.3400000  8.352137e-03  5.150536e-03  2.283815e-03  9.496669e-04  3.993567e-01  3.148345e+04  2.372385e+03  
   1.3500000  9.093602e-03  5.466098e-03  2.452471e-03  1.006793e-03  4.069963e-01  3.208931e+04  2.414632e+03  
   1.3600000  9.969337e-03  5.791087e-03  2.648067e-03  1.065521e-03  4.148470e-01  3.269015e+04  2.456349e+03  
   1.3700000  1.107987e-02  6.126618e-03  2.890986e-03  1.126038e-03  4.229241e-01  3.328350e+04  2.497349e+03  
   1.3800000  1.257543e-02  6.477519e-03  3.211853e-03  1.189207e-03  4.312345e-01  3.386754e+04  2.537495e+03  
   1.3900000  1.466586e-02  6.853103e-03  3.653510e-03  1.256708e-03  4.397729e-01  3.444160e+04  2.576737e+03  
   1.4000000  1.762960e-02  7.267436e-03  4.272821e-03  1.331086e-03  4.485191e-01  3.500678e+04  2.615154e+03  
   1.4100000  2.182131e-02  7.738968e-03  5.142169e-03  1.415678e-03  4.574369e-01  3.556633e+04  2.652982e+03  
   1.4200000  2.767782e-02  8.289504e-03  6.350565e-03  1.514424e-03  4.664756e-01  3.612592e+04  2.690643e+03  
   1.4299999  3.572238e-02  8.942539e-03  8.004333e-03  1.631563e-03  4.755769e-01  3.669362e+04  2.728730e+03  
   1.4400001  4.656717e-02  9.721143e-03  1.022720e-02  1.771242e-03  4.846848e-01  3.727935e+04  2.767969e+03  
   1.4500000  6.091314e-02  1.064554e-02  1.315940e-02  1.937079e-03  4.937625e-01  3.789361e+04  2.809135e+03  
   1.4600000  7.954820e-02  1.173078e-02  1.695573e-02  2.131744e-03  5.028136e-01  3.854573e+04  2.852911e+03  
   1.4700000  1.033396e-01  1.298472e-02  2.178136e-02  2.356582e-03  5.119075e-01  3.924137e+04  2.899711e+03  
   1.4800000  1.332181e-01  1.440666e-02  2.780483e-02  2.611391e-03  5.212058e-01  3.997955e+04  2.949462e+03  
   1.4900000  1.701488e-01  1.598723e-02  3.518694e-02  2.894383e-03  5.309876e-01  4.074980e+04  3.001402e+03  
   1.5000000  2.150823e-01  1.770977e-02  4.406474e-02  3.202453e-03  5.416729e-01  4.152988e+04  3.053907e+03  
   1.5100000  2.688790e-01  1.955392e-02  5.453033e-02  3.531813e-03  5.538337e-01  4.228486e+04  3.104436e+03  
   1.5200000  3.322078e-01  2.150164e-02  6.660545e-02  3.879090e-03  5.682003e-01  4.296884e+04  3.149650e+03  
   1.5300000  4.054241e-01  2.354579e-02  8.021545e-02  4.242843e-03  5.856510e-01  4.352974e+04  3.185769e+03  
   1.5400000  4.884521e-01  2.570046e-02  9.516939e-02  4.625428e-03  6.071838e-01  4.391835e+04  3.209218e+03  
   1.5500000  5.807216e-01  2.801143e-02  1.111571e-01  5.034842e-03  6.338671e-01  4.410133e+04  3.217573e+03  
   1.5599999  6.812441e-01  3.056356e-02  1.277796e-01  5.486054e-03  6.667608e-01  4.407738e+04  3.210724e+03  
   1.5700001  7.889667e-01  3.348174e-02  1.446337e-01  6.001155e-03  7.068084e-01  4.389471e+04  3.192115e+03  
   1.5800000  9.035693e-01  3.692105e-02  1.614746e-01  6.607597e-03  7.546967e-01  4.366703e+04  3.169886e+03  
   1.5900000  1.026929e+00  4.104434e-02  1.784784e-01  7.334200e-03  8.107100e-01  4.358479e+04  3.157656e+03  
   1.6000000  1.165380e+00  4.598706e-02  1.966120e-01  8.204910e-03  8.745927e-01  4.392037e+04  3.174864e+03  
   1.6100000  1.332811e+00  5.181389e-02  2.180918e-01  9.231083e-03  9.454623e-01  4.502649e+04  3.246611e+03  
   1.6200000  1.554300e+00  5.847522e-02  2.468712e-01  1.040379e-02  1.021805e+00  4.733159e+04  3.403269e+03  
   1.6300000  1.869586e+00  6.577386e-02  2.890357e-01  1.168799e-02  1.101560e+00  5.133650e+04  3.680190e+03  
   1.6400000  2.335140e+00  7.335292e-02  3.529343e-01  1.302036e-02  1.182282e+00  5.761704e+04  4.117810e+03  
   1.6500000  3.023234e+00  8.071236e-02  4.488418e-01  1.431240e-02  1.261318e+00  6.683198e+04  4.762169e+03  
   1.6600000  4.016355e+00  8.725636e-02  5.879714e-01  1.545880e-02  1.335942e+00  7.972833e+04  5.665248e+03  
   1.6700000  5.395922e+00  9.236717e-02  7.807595e-01  1.635060e-02  1.403388e+00  9.712670e+04  6.883938e+03  
   1.6799999  7.225632e+00  9.549417e-02  1.034538e+00  1.689090e-02  1.460779e+00  1.198655e+05  8.476139e+03  
   1.6900001  9.531747e+00  9.624339e-02  1.350960e+00  1.701069e-02  1.505004e+00  1.486885e+05  1.049291e+04  
   1.7000000  1.228444e+01  9.445091e-02  1.723753e+00  1.668165e-02  1.532674e+00  1.840740e+05  1.296651e+04  
   1.7100000  1.538628e+01  9.022675e-02  2.137582e+00  1.592378e-02  1.540261e+00  2.260380e+05  1.589671e+04  
   1.7200000  1.867256e+01  8.395948e-02  2.568572e+00  1.480609e-02  1.524523e+00  2.739538e+05  1.923814e+04  
   1.7300000  2.192688e+01  7.628082e-02  2.986844e+00  1.344014e-02  1.483153e+00  3.264552e+05  2.289376e+04  
   1.7400000  2.491086e+01  6.799364e-02  3.360800e+00  1.196725e-02  1.415563e+00  3.814737e+05  2.671750e+04  
   1.7500000  2.740234e+01  5.997481e-02  3.662320e+00  1.054139e-02  1.323547e+00  4.364292e+05  3.052786e+04  
   1.7600000  2.923327e+01  5.306631e-02  3.871685e+00  9.310042e-03  1.211606e+00  4.885491e+05  3.413036e+04  
