# RiF 1e-20 (cm^2/W) 1w RpP RpS RsP RsS
00.01    1.35365451306108e-09    4.44825442469526e-08    2.64781659180206e-08    8.79170138894964e-09    7.06895213509284e-05    1.15128077081424e+00    9.48298463881788e-02
00.02    5.43662693288799e-09    1.77962064100477e-07    1.05931487544301e-07    3.51727360979629e-08    2.82754946496788e-04    4.60546625016578e+00    3.79342547422529e-01
00.03    1.23148945010219e-08    4.00524773949570e-07    2.38427218663536e-07    7.91589422573181e-08    6.36183688395455e-04    1.03634987184568e+01    8.53599223587768e-01
00.04    2.21057719851761e-08    7.12325638403292e-07    4.24063221677616e-07    1.40779114578239e-07    1.13095691512586e-03    1.84270890804164e+01    1.51771565563501e+00
00.05    3.49578872393701e-08    1.11356922830403e-06    6.62989482062406e-07    2.20070967609981e-07    1.76705826693064e-03    2.87985431987290e+01    2.37184452909901e+00
00.06    5.10624365100122e-08    1.60453963083873e-06    9.55369224607401e-07    3.17087178589256e-07    2.54445021966717e-03    4.14806935294993e+01    3.41617164873819e+00
00.07    7.07190419139160e-08    2.18555134932619e-06    1.30148932636750e-06    4.31885650048141e-07    3.46308541457928e-03    5.64772852316151e+01    4.65094731821126e+00
00.08    9.41482624145681e-08    2.85701786196426e-06    1.70155725781821e-06    5.64543051845066e-07    4.52294849663600e-03    7.37923031533378e+01    6.07643088109182e+00
00.09    1.21823860946844e-07    3.61941044206214e-06    2.15586175815030e-06    7.15146674789490e-07    5.72391664413827e-03    9.34313622653423e+01    7.69300518027948e+00
00.10    1.54087737034297e-07    4.47320225898622e-06    2.66487687183687e-06    8.83783377488371e-07    7.06600040909034e-03    1.15399297861686e+02    9.50097807757988e+00
00.11    1.91372778187533e-07    5.41901966650346e-06    3.22888367347330e-06    1.07057033832712e-06    8.54917237045956e-03    1.39702720421457e+02    1.15008046768740e+01
00.12    2.34472630472601e-07    6.45750911493088e-06    3.84850735242487e-06    1.27562543434908e-06    1.01731926629706e-02    1.66348840888340e+02    1.36929452024577e+01
00.13    2.83681420020036e-07    7.58929478321287e-06    4.52388415188854e-06    1.49906359692270e-06    1.19381289838488e-02    1.95345297879492e+02    1.60779154997410e+01
00.14    3.39930898036731e-07    8.81534226637757e-06    5.25594679224834e-06    1.74106704021843e-06    1.38438516372425e-02    2.26699251156351e+02    1.86561904768678e+01
00.15    4.03969860135822e-07    1.01363687884893e-05    6.04493362137103e-06    2.00176401967951e-06    1.58901882593606e-02    2.60421894678699e+02    2.14285109633024e+01
00.16    4.76644397520228e-07    1.15533055845640e-05    6.89189103897513e-06    2.28132801326880e-06    1.80771722250614e-02    2.96521025140349e+02    2.43953794035646e+01
00.17    5.58740594300699e-07    1.30671321147659e-05    7.79685570854493e-06    2.57994199783038e-06    2.04046513056300e-02    3.35007239401455e+02    2.75575293096558e+01
00.18    6.51773880618666e-07    1.46788544387695e-05    8.76119256433155e-06    2.89778726280161e-06    2.28723771791948e-02    3.75892748766870e+02    3.09157336671669e+01
00.19    7.56390712250195e-07    1.63897244619970e-05    9.78546309027116e-06    3.23509847589040e-06    2.54804637833252e-02    4.19186859922536e+02    3.44705938749222e+01
00.20    8.74345153571818e-07    1.82010296201324e-05    1.08702251360876e-05    3.59211740857241e-06    2.82286498836975e-02    4.64905491702677e+02    3.82232578774308e+01
00.21    1.00691559482682e-06    2.01139145587481e-05    1.20165721499964e-05    3.96904823262328e-06    3.11166645851734e-02    5.13058957002678e+02    4.21742865902680e+01
00.22    1.15587813402027e-06    2.21298463343564e-05    1.32254592936099e-05    4.36616588826578e-06    3.41444050042645e-02    5.63662475802413e+02    4.63247432123098e+01
00.23    1.32234216321194e-06    2.42498632955385e-05    1.44974714764659e-05    4.78365707953646e-06    3.73119759552324e-02    6.16730533009008e+02    5.06755830026668e+01
00.24    1.50915413619608e-06    2.64764258423341e-05    1.58345000711259e-05    5.22199221041523e-06    4.06190463381684e-02    6.72277772247209e+02    5.52278193228947e+01
00.25    1.71797605401868e-06    2.88100176953820e-05    1.72367162015527e-05    5.68123835721511e-06    4.40652293864103e-02    7.30322554923377e+02    5.99825926995950e+01
00.26    1.95053313945099e-06    3.12529542264032e-05    1.87056438246506e-05    6.16182974404872e-06    4.76507057208266e-02    7.90880412559119e+02    6.49408933405862e+01
00.27    2.20981767737017e-06    3.38074423720950e-05    2.02420385765186e-05    6.66418866295632e-06    5.13751300397234e-02    8.53968814379060e+02    7.01040016444909e+01
00.28    2.49810023498246e-06    3.64745430503970e-05    2.18483070400264e-05    7.18849612282947e-06    5.52386257433135e-02    9.19602044621861e+02    7.54727334848330e+01
00.29    2.81955999089685e-06    3.92568428766447e-05    2.35243972936097e-05    7.73523101201130e-06    5.92400178446584e-02    9.87808325411894e+02    8.10490143451575e+01
00.30    3.17530488658942e-06    4.21560892185128e-05    2.52725345872474e-05    8.30472383188723e-06    6.33806610336446e-02    1.05860121042128e+03    8.68337976191837e+01
00.31    3.57067918075811e-06    4.51746363499760e-05    2.70940072310295e-05    8.89739831598953e-06    6.76587149430685e-02    1.13199981663857e+03    9.28281457748793e+01
00.32    4.00834035273056e-06    4.83146856521139e-05    2.89902991410761e-05    9.51365823365614e-06    7.20748871628490e-02    1.20803370500114e+03    9.90341188373070e+01
00.33    4.49346583562341e-06    5.15786980826089e-05    3.09632538224574e-05    1.01539733587986e-05    7.66287001272337e-02    1.28671977871261e+03    1.05452941224176e+02
00.34    5.02704880901877e-06    5.49694081038821e-05    3.30133165516979e-05    1.08188350696067e-05    8.13202845457539e-02    1.36807599297407e+03    1.12085501969665e+02
00.35    5.61761779236414e-06    5.84895505352380e-05    3.51433753675666e-05    1.15087661016937e-05    8.61490492032057e-02    1.45213648578134e+03    1.18934437137566e+02
00.36    6.26732640964274e-06    6.21414418971934e-05    3.73548901667299e-05    1.22241605202658e-05    9.11148937081220e-02    1.53892267494458e+03    1.26000734583647e+02
00.37    6.98361399698724e-06    6.59281267694519e-05    3.96500150529730e-05    1.29656097480528e-05    9.62174638909188e-02    1.62845713735699e+03    1.33286197642450e+02
00.38    7.77263673500981e-06    6.98534676023129e-05    4.20307060966404e-05    1.37338161178597e-05    1.01455977762095e-01    1.72077087728515e+03    1.40792670688930e+02
00.39    8.63782631130472e-06    7.39193770113419e-05    4.44987905770219e-05    1.45291269316891e-05    1.06831274034672e-01    1.81588531551867e+03    1.48521595228959e+02
00.40    9.58828045661779e-06    7.81300077059905e-05    4.70552302257945e-05    1.53523059315852e-05    1.12341912657594e-01    1.91384173344152e+03    1.56475731965717e+02
00.41    1.06292313201273e-05    8.24888774305556e-05    4.97048982696463e-05    1.62040134089268e-05    1.17988748070936e-01    2.01464956855193e+03    1.64655527136781e+02
00.42    1.17697985349767e-05    8.69991103007548e-05    5.24471438678058e-05    1.70848055959924e-05    1.23770349921855e-01    2.11835858408944e+03    1.73064386096500e+02
00.43    1.30187641497471e-05    9.16653058504655e-05    5.52858264221554e-05    1.79955524776853e-05    1.29686620933709e-01    2.22498918625079e+03    1.81703636329145e+02
00.44    1.43793306469009e-05    9.64911888658711e-05    5.82235253021599e-05    1.89369376948453e-05    1.35739272167775e-01    2.33457112595535e+03    1.90575192784354e+02
00.45    1.58693287279272e-05    1.01480056510551e-04    6.12627496513395e-05    1.99095428684884e-05    1.41924590731906e-01    2.44714270107192e+03    1.99681447135523e+02
00.46    1.74932706306731e-05    1.06638257796444e-04    6.44060436564663e-05    2.09145596711162e-05    1.48244376903759e-01    2.56274266446386e+03    2.09024987184082e+02
00.47    1.92614056009502e-05    1.11968865495143e-04    6.76564973533469e-05    2.19525519440624e-05    1.54698617242326e-01    2.68139774672944e+03    2.18607625607086e+02
00.48    2.11870514467934e-05    1.17477319195414e-04    7.10148270674432e-05    2.30245300804954e-05    1.61285886545734e-01    2.80315246820504e+03    2.28432413287211e+02
00.49    2.32810180400405e-05    1.23167483666670e-04    7.44877438787305e-05    2.41311544954001e-05    1.68006242201280e-01    2.92803885799290e+03    2.38500876641047e+02
00.50    2.55553353586778e-05    1.29045757567718e-04    7.80746245286056e-05    2.52736530824594e-05    1.74858922318840e-01    3.05608855218654e+03    2.48815427726239e+02
00.51    2.80247945764986e-05    1.35117841274223e-04    8.17828013150265e-05    2.64530574917360e-05    1.81844283364997e-01    3.18734369055384e+03    2.59378602988588e+02
00.52    3.06992941781008e-05    1.41389289743780e-04    8.56115347786076e-05    2.76704082029797e-05    1.88962644845461e-01    3.32185039580630e+03    2.70193752491081e+02
00.53    3.36042147345237e-05    1.47866089788998e-04    8.95682262391360e-05    2.89267615868580e-05    1.96211197287751e-01    3.45965939443225e+03    2.81263761911166e+02
00.54    3.67433457172284e-05    1.54553978714656e-04    9.36520850351845e-05    3.02232102015723e-05    2.03591950634437e-01    3.60079353670378e+03    2.92590334637722e+02
00.55    4.01438267869789e-05    1.61461912402903e-04    9.78693403665031e-05    3.15614050149587e-05    2.11102560761782e-01    3.74531180397469e+03    3.04177251054465e+02
00.56    4.38163745317423e-05    1.68593803309835e-04    1.02223477568989e-04    3.29420290697203e-05    2.18744025806102e-01    3.89324714734247e+03    3.16026430587635e+02
00.57    4.77855205892044e-05    1.75957427223497e-04    1.06722107377835e-04    3.43665169097044e-05    2.26516069664209e-01    4.04465301231148e+03    3.28141435349221e+02
00.58    5.20676596237654e-05    1.83563140499685e-04    1.11363349395262e-04    3.58368310026391e-05    2.34417250560951e-01    4.19956317347551e+03    3.40524555628937e+02
00.59    5.66823911986982e-05    1.91415289450140e-04    1.16153836003826e-04    3.73536713387349e-05    2.42447723907307e-01    4.35804497927599e+03    3.53179753787712e+02
00.60    6.16603088946538e-05    1.99524040212227e-04    1.21102178310792e-04    3.89189528618711e-05    2.50607378674039e-01    4.52014770231979e+03    3.66110517129251e+02
00.61    6.70172116378507e-05    2.07899335342463e-04    1.26206151154914e-04    4.05345140840097e-05    2.58894260890565e-01    4.68590210609328e+03    3.79318476273673e+02
00.62    7.27678818040473e-05    2.16550630480770e-04    1.31473484323754e-04    4.22020930843266e-05    2.67311831934541e-01    4.85537145808791e+03    3.92807870862180e+02
00.63    7.89715072552695e-05    2.25485696362563e-04    1.36913804017348e-04    4.39230942438489e-05    2.75855267426625e-01    5.02863869302563e+03    4.06584503762214e+02
00.64    8.56282774551712e-05    2.34714816591686e-04    1.42524227172520e-04    4.56994062136074e-05    2.84524555703307e-01    5.20569583041872e+03    4.20646800304740e+02
00.65    9.27718052447759e-05    2.44248880276106e-04    1.48317717662137e-04    4.75329918861741e-05    2.93322619939699e-01    5.38665590779544e+03    4.35002503632225e+02
00.66    1.00445756713832e-04    2.54100826763891e-04    1.54296267980879e-04    4.94262788249389e-05    3.02245212160756e-01    5.57155820978778e+03    4.49654220606326e+02
00.67    1.08651265545063e-04    2.64280836425592e-04    1.60461761904303e-04    5.13811161191673e-05    3.11296736723367e-01    5.76045577639973e+03    4.64605230994432e+02
00.68    1.17454566199804e-04    2.74802771564689e-04    1.66828297487493e-04    5.34000198526220e-05    3.20471159768774e-01    5.95339469471360e+03    4.79857741688707e+02
00.69    1.26883091166004e-04    2.85680110867821e-04    1.73397923640400e-04    5.54855046579262e-05    3.29771143197781e-01    6.15047312300641e+03    4.95419069920311e+02
00.70    1.36981755229210e-04    2.96925682300372e-04    1.80176617270532e-04    5.76398664691848e-05    3.39192984835528e-01    6.35174117050906e+03    5.11291655412434e+02
00.71    1.47767390472480e-04    3.08556276811172e-04    1.87177022230010e-04    5.98662495700129e-05    3.48741869176925e-01    6.55722192701042e+03    5.27476740066592e+02
00.72    1.59283840846919e-04    3.20583437617541e-04    1.94395267626696e-04    6.21666800194639e-05    3.58414386676707e-01    6.76703750323187e+03    5.43982469281671e+02
00.73    1.71597193239352e-04    3.33026130733024e-04    2.01849565753827e-04    6.45447088758534e-05    3.68210692163945e-01    6.98124926976929e+03    5.60813131914088e+02
00.74    1.84745917842129e-04    3.45901715213462e-04    2.09541963566785e-04    6.70034670776087e-05    3.78126740611745e-01    7.19988545731809e+03    5.77969226243140e+02
00.75    1.98758625568813e-04    3.59229696937102e-04    2.17479617573446e-04    6.95465374173140e-05    3.88167427018638e-01    7.42306439997345e+03    5.95458987085319e+02
00.76    2.13702503518349e-04    3.73025480564422e-04    2.25670158457146e-04    7.21766971407652e-05    3.98327241547539e-01    7.65082218102449e+03    6.13284010570714e+02
00.77    2.29605017490068e-04    3.87312859531979e-04    2.34123345527638e-04    7.48983938083695e-05    4.08611719811993e-01    7.88322696228888e+03    6.31449071060423e+02
00.78    2.46555918372936e-04    4.02114306823602e-04    2.42852447667587e-04    7.77156925869555e-05    4.19016669257691e-01    8.12039534405228e+03    6.49961550438820e+02
00.79    2.64589712709758e-04    4.17449186323842e-04    2.51860190838473e-04    8.06320355998020e-05    4.29541175938934e-01    8.36239585361569e+03    6.68824867096361e+02
00.80    2.83768121935335e-04    4.33347418012342e-04    2.61156301279415e-04    8.36530761419117e-05    4.40183876346407e-01    8.60922926560818e+03    6.88038986987904e+02
00.81    3.04148217327142e-04    4.49826799411215e-04    2.70756712411588e-04    8.67818590057370e-05    4.50950288638211e-01    8.86109793241429e+03    7.07617264866474e+02
00.82    3.25809504896402e-04    4.66919321597614e-04    2.80657933783468e-04    9.00244136441884e-05    4.61832859949903e-01    9.11800598718885e+03    7.27559933904177e+02
00.83    3.48792094966936e-04    4.84660467218521e-04    2.90881569733175e-04    9.33871522221700e-05    4.72834562352362e-01    9.38003119752037e+03    7.47870236698640e+02
00.84    3.73156902397079e-04    5.03076887532669e-04    3.01440055606969e-04    9.68749694050604e-05    4.83958016292953e-01    9.64723949985189e+03    7.68552583545952e+02
00.85    3.99035612874155e-04    5.22196271817655e-04    3.12337931994093e-04    1.00492874091387e-04    4.95197675870138e-01    9.91981563576207e+03    7.89620095121047e+02
00.86    4.26424498510970e-04    5.42059034657226e-04    3.23582571905241e-04    1.04248223009742e-04    5.06554879867137e-01    1.01977330111365e+04    8.11068204967455e+02
00.87    4.55439175282837e-04    5.62703629568801e-04    3.35185929678091e-04    1.08148042379858e-04    5.18027457248589e-01    1.04811410283304e+04    8.32907067095018e+02
00.88    4.86145166391957e-04    5.84174149270923e-04    3.47168762668959e-04    1.12200589073659e-04    5.29621505919916e-01    1.07700893050764e+04    8.55140557135980e+02
00.89    5.18674711385085e-04    6.06505247434446e-04    3.59541580831226e-04    1.16411855516479e-04    5.41327775454817e-01    1.10647311984615e+04    8.77776544250714e+02
00.90    5.53019794829254e-04    6.29749209491872e-04    3.72299748177857e-04    1.20791618662001e-04    5.53151493544479e-01    1.13650806406774e+04    9.00816006371392e+02
00.91    5.89272261246828e-04    6.53957860947468e-04    3.85477996883138e-04    1.25349270001138e-04    5.65095548010151e-01    1.16712134603336e+04    9.24262215699385e+02
00.92    6.27561067259088e-04    6.79181444535383e-04    3.99065230023533e-04    1.30094049501411e-04    5.77153303574392e-01    1.19832820094850e+04    9.48126251329093e+02
00.93    6.67924436918073e-04    7.05480667800352e-04    4.13087122174726e-04    1.35036869360405e-04    5.89329037102872e-01    1.23013712481749e+04    9.72410994443460e+02
00.94    7.10462976928374e-04    7.32925665764585e-04    4.27556885531557e-04    1.40190803980258e-04    6.01621854217539e-01    1.26254987748017e+04    9.97117730506926e+02
00.95    7.55258321464383e-04    7.61570994551687e-04    4.42475700161678e-04    1.45565488359743e-04    6.14029451007915e-01    1.29558326910037e+04    1.02225572783181e+03
00.96    8.02320381676229e-04    7.91505813710524e-04    4.57863018218561e-04    1.51177557406234e-04    6.26560371697195e-01    1.32923654023577e+04    1.04782429166212e+03
00.97    8.51891505978199e-04    8.22791230967045e-04    4.73717739903183e-04    1.57037786857483e-04    6.39196316484859e-01    1.36352933208518e+04    1.07383471792244e+03
00.98    9.03822342380069e-04    8.55535561606520e-04    4.90056125817672e-04    1.63166249249874e-04    6.51958532809427e-01    1.39845856353048e+04    1.10028340785617e+03
00.99    9.58329183203128e-04    8.89825289532733e-04    5.06886263318283e-04    1.69578672816311e-04    6.64834005082184e-01    1.43403447603624e+04    1.12717620734961e+03
01.00    1.01534800111503e-03    9.25768055234844e-04    5.24195412992034e-04    1.76294619479353e-04    6.77827804494413e-01    1.47026595031969e+04    1.15451670038882e+03
01.01    1.07481625385062e-03    9.63495781695971e-04    5.41989451051554e-04    1.83338315646774e-04    6.90944795252541e-01    1.50714773390856e+04    1.18229839415792e+03
01.02    1.13692291577564e-03    1.00313886498717e-03    5.60255441515076e-04    1.90733750175601e-04    7.04175473796623e-01    1.54469818669428e+04    1.21053448405850e+03
01.03    1.20147854994433e-03    1.04485299312740e-03    5.78994195351756e-04    1.98509496864976e-04    7.17532601552765e-01    1.58290857512037e+04    1.23921576087834e+03
01.04    1.26861859559309e-03    1.08875480128236e-03    5.98202816391609e-04    2.06686295453882e-04    7.31007742041562e-01    1.62180127364765e+04    1.26835485669812e+03
01.05    1.33837466260394e-03    1.13496174652809e-03    6.17880788534761e-04    2.15285555032578e-04    7.44602813281446e-01    1.66137806222727e+04    1.29795309466518e+03
01.06    1.41081121762375e-03    1.18361975901468e-03    6.38004109927166e-04    2.24333534922205e-04    7.58310113054762e-01    1.70165968317414e+04    1.32802288201109e+03
01.07    1.48582220544622e-03    1.23500062029878e-03    6.58558019425542e-04    2.33880368849670e-04    7.72138783464451e-01    1.74265381267608e+04    1.35856756574292e+03
01.08    1.56287618198849e-03    1.28965045709791e-03    6.79481781489579e-04    2.44027729063173e-04    7.86099502924709e-01    1.78432945223074e+04    1.38955896440383e+03
01.09    1.64163611965716e-03    1.34828701446199e-03    7.00688522693928e-04    2.54909909430607e-04    8.00203837738370e-01    1.82669483853790e+04    1.42100354880209e+03
01.10    1.72117831183116e-03    1.41147998764016e-03    7.22061785776115e-04    2.66632018353391e-04    8.14480592735762e-01    1.86973664047577e+04    1.45288553953793e+03
01.11    1.80128363932341e-03    1.47921393793547e-03    7.43465700390132e-04    2.79188674655613e-04    8.28921702932962e-01    1.91349519148131e+04    1.48523349441374e+03
01.12    1.88195672654743e-03    1.55060520260874e-03    7.64824503132328e-04    2.92410957055388e-04    8.43515714915543e-01    1.95800255749108e+04    1.51807087601092e+03
01.13    1.96352412785845e-03    1.62417944797675e-03    7.86096512797185e-04    3.06019006235400e-04    8.58235306002209e-01    2.00329277695721e+04    1.55142114964157e+03
01.14    2.04735506318943e-03    1.69875081061046e-03    8.07505321425354e-04    3.19787739443302e-04    8.73046997345181e-01    2.04941756816945e+04    1.58531822996115e+03
